Time (s),ECG
0.0,0.0
0.001000100010001,6.283772334522856e-05
0.002000200020002,0.00012567296546851691
0.003000300030003,0.00018850324524589883
0.004000400040004,0.0002513260817493523
0.005000500050005001,0.0003141389943447616
0.006000600060006,0.00037693950278986846
0.0070007000700070005,0.000439725127332207
0.008000800080008,0.0005024933888070201
0.009000900090009001,0.0005652418087351517
0.010001000100010001,0.0006279679094209128
0.011001100110011002,0.0006906692140499162
0.012001200120012,0.0007533432467868763
0.013001300130013,0.0008159875328733705
0.014001400140014001,0.0008785995987255578
0.015001500150015001,0.0009411769720318513
0.016001600160016,0.001003717181850541
0.017001700170017002,0.0010662177587073603
0.018001800180018002,0.0011286762346929974
0.019001900190019003,0.0011910901435605433
0.020002000200020003,0.0012534570208228748
0.021002100210021003,0.001315774403849967
0.022002200220022004,0.0013780398319661333
0.023002300230023004,0.0014402508465471886
0.024002400240024,0.0015024049911175306
0.025002500250025,0.0015644998114471367
0.026002600260026,0.0016265328556484726
0.027002700270027002,0.001688501674273307
0.028002800280028002,0.0017504038204094316
0.029002900290029002,0.0018122368497772811
0.030003000300030003,0.001873998320826447
0.031003100310031003,0.0019356857948320857
0.032003200320032,0.0019972968359912146
0.033003300330033,0.0020588290115188925
0.034003400340034004,0.002120279891744282
0.035003500350035,0.002181647050206585
0.036003600360036005,0.0022429280637508596
0.037003700370037,0.0023041205126236937
0.038003800380038005,0.002365221980568761
0.039003900390039,0.0024262300549222206
0.040004000400040006,0.002487142326707991
0.041004100410041,0.0025479563907328663
0.04200420042004201,0.002608669845681494
0.043004300430043,0.0026692802942111854
0.04400440044004401,0.002729785343046586
0.045004500450045004,0.002790182603074172
0.04600460046004601,0.0028504696894365877
0.047004700470047005,0.0029106442216268145
0.048004800480048,0.0029707038235821715
0.049004900490049005,0.0030306461237781315
0.05000500050005,0.0030904687553219663
0.051005100510051006,0.0031501693560462085
0.052005200520052,0.0032097455686019194
0.05300530053005301,0.0032691950405517767
0.054005400540054004,0.0033285154244629593
0.05500550055005501,0.0033877043779998416
0.056005600560056004,0.0034467595640164813
0.05700570057005701,0.0035056786506489045
0.058005800580058005,0.0035644593114071838
0.05900590059005901,0.0036230992252673016
0.060006000600060005,0.0036815960767627963
0.06100610061006101,0.003739947556076197
0.062006200620062006,0.0037981513591302213
0.063006300630063,0.0038562051876787607
0.064006400640064,0.003914106749397629
0.06500650065006501,0.003971853757975074
0.066006600660066,0.004029443933202058
0.067006700670067,0.004086875001062295
0.06800680068006801,0.004144144693822041
0.06900690069006901,0.004201250750119639
0.07000700070007,0.00425819091505481
0.071007100710071,0.004314962940277696
0.07200720072007201,0.004371564584077631
0.07300730073007301,0.004427993611471663
0.074007400740074,0.004484247794292802
0.075007500750075,0.0045403249112780045
0.07600760076007601,0.004596222748155881
0.07700770077007701,0.004651939097734129
0.078007800780078,0.004707471759986685
0.07900790079007901,0.004762818542140601
0.08000800080008001,0.004817977258762624
0.081008100810081,0.004872945731845489
0.082008200820082,0.004927721790893923
0.08300830083008301,0.004982303273010353
0.08400840084008401,0.0050366880229803
0.085008500850085,0.005090873893357494
0.086008600860086,0.005144858744548653
0.08700870087008701,0.005198640444897985
0.08800880088008801,0.005252216870771344
0.089008900890089,0.005305585906640089
0.09000900090009001,0.005358745445164622
0.09100910091009101,0.005411693387277595
0.09200920092009202,0.005464427642266795
0.093009300930093,0.005516946127857695
0.09400940094009401,0.005569246770295685
0.09500950095009501,0.005621327504427944
0.096009600960096,0.005673186273784991
0.09700970097009701,0.005724821030661894
0.09800980098009801,0.005776229736199111
0.09900990099009901,0.005827410360463009
0.1000100010001,0.0058783608825260115
0.10101010101010101,0.005929079290546404
0.10201020102010201,0.005979563581847766
0.10301030103010302,0.0060298117629980575
0.104010401040104,0.006079821849888322
0.10501050105010501,0.006129591867811039
0.10601060106010601,0.0061791198515381
0.10701070107010702,0.0062284038453983975
0.10801080108010801,0.006277441903355052
0.10901090109010901,0.006326232089082263
0.11001100110011001,0.0063747724760417485
0.11101110111011102,0.006423061147558833
0.11201120112011201,0.006471096196898122
0.11301130113011301,0.006518875727338792
0.11401140114011402,0.006566397852249488
0.115011501150115,0.006613660695162814
0.11601160116011601,0.006660662389849435
0.11701170117011701,0.006707401080391761
0.11801180118011802,0.006753874921257229
0.11901190119011901,0.006800082077371184
0.12001200120012001,0.006846020724189332
0.12101210121012101,0.006891689047769789
0.12201220122012202,0.006937085244844701
0.12301230123012301,0.006982207522891451
0.12401240124012401,0.007027054100203445
0.125012501250125,0.007071623205960453
0.126012601260126,0.007115913080298538
0.127012701270127,0.007159921974379553
0.128012801280128,0.0072036481504601825
0.12901290129012902,0.007247089881960568
0.13001300130013002,0.007290245453532485
0.13101310131013102,0.007333113161127067
0.132013201320132,0.007375691312062102
0.133013301330133,0.007417978225088866
0.134013401340134,0.007459972230458509
0.135013501350135,0.0075016716699879814
0.13601360136013602,0.007543074897125522
0.13701370137013702,0.007584180277015661
0.13801380138013802,0.007624986186563784
0.13901390139013903,0.007665491014500215
0.14001400140014,0.007705693161443843
0.141014101410141,0.007745591039965277
0.142014201420142,0.007785183074649521
0.14301430143014301,0.007824467702158189
0.14401440144014402,0.007863443371291226
0.14501450145014502,0.007902108543048172
0.14601460146014603,0.007940461690688917
0.147014701470147,0.007978501299793996
0.148014801480148,0.008016225868324385
0.149014901490149,0.008053633906680808
0.15001500150015,0.00809072393776256
0.15101510151015102,0.00812749449702583
0.15201520152015202,0.008163944132541526
0.15301530153015303,0.008200071405052616
0.15401540154015403,0.00823587488803095
0.155015501550155,0.008271353167733591
0.156015601560156,0.008306504843258641
0.157015701570157,0.008341328526600553
0.15801580158015802,0.00837582284270494
0.15901590159015902,0.00840998642952287
0.16001600160016002,0.008443817938064651
0.16101610161016103,0.008477316032453093
0.162016201620162,0.008510479389976254
0.163016301630163,0.008543306701139687
0.164016401640164,0.00857579666971812
0.16501650165016502,0.00860794801280666
0.16601660166016602,0.008639759460871439
0.16701670167016702,0.00867122975779975
0.16801680168016803,0.00870235766094964
0.16901690169016903,0.008733141941198981
0.17001700170017,0.008763581382994002
0.171017101710171,0.008793674784397286
0.172017201720172,0.008823420957135234
0.17301730173017302,0.008852818726644979
0.17401740174017402,0.008881866932120768
0.17501750175017503,0.008910564426559799
0.17601760176017603,0.008938910076807511
0.177017701770177,0.008966902763602328
0.178017801780178,0.008994541381619854
0.179017901790179,0.009021824839516515
0.18001800180018002,0.009048752059972659
0.18101810181018102,0.00907532197973509
0.18201820182018202,0.009101533549659053
0.18301830183018303,0.009127385734749662
0.18401840184018403,0.009152877514202764
0.185018501850185,0.00917800788144525
0.186018601860186,0.009202775844174805
0.18701870187018702,0.009227180424399078
0.18801880188018802,0.009251220658474314
0.18901890189018902,0.009274895597143392
0.19001900190019003,0.009298204305573316
0.19101910191019103,0.009321145863392123
0.192019201920192,0.009343719364725224
0.193019301930193,0.009365923918231185
0.19401940194019401,0.009387758647136908
0.19501950195019502,0.009409222689272254
0.19601960196019602,0.009430315197104097
0.19701970197019703,0.009451035337769777
0.19801980198019803,0.009471382293110002
0.19901990199019903,0.009491355259701136
0.2000200020002,0.00951095344888693
0.201020102010201,0.009530176086809674
0.20202020202020202,0.00954902241444074
0.20302030203020302,0.009567491687610554
0.20402040204020402,0.00958558317703799
0.20502050205020503,0.009603296168359155
0.20602060206020603,0.009620629962155609
0.20702070207020704,0.009637583873981967
0.208020802080208,0.009654157234392939
0.20902090209020902,0.00967034938896976
0.21002100210021002,0.009686159698346023
0.21102110211021102,0.009701587538232935
0.21202120212021203,0.009716632299443966
0.21302130213021303,0.009731293387918895
0.21402140214021403,0.009745570224747278
0.215021502150215,0.009759462246191303
0.21602160216021601,0.009772968903708044
0.21702170217021702,0.009786089663971133
0.21802180218021802,0.009798824008891809
0.21902190219021903,0.009811171435639374
0.22002200220022003,0.009823131456661062
0.22102210221022103,0.009834703599701273
0.22202220222022204,0.009845887407820234
0.223022302230223,0.00985668243941203
0.22402240224022402,0.009867088268222053
0.22502250225022502,0.009877104483363831
0.22602260226022602,0.009886730689335235
0.22702270227022703,0.009895966506034127
0.22802280228022803,0.009904811568773342
0.22902290229022904,0.009913265528295101
0.23002300230023,0.009921328050784797
0.23102310231023102,0.00992899881788418
0.23202320232023202,0.009936277526703926
0.23302330233023302,0.009943163889835592
0.23402340234023403,0.009949657635362976
0.23502350235023503,0.009955758506872843
0.23602360236023603,0.009961466263465052
0.23702370237023704,0.009966780679762078
0.23802380238023801,0.009971701545917892
0.23902390239023902,0.009976228667626269
0.24002400240024002,0.009980361866128445
0.24102410241024103,0.009984100978220181
0.24202420242024203,0.009987445856258208
0.24302430243024303,0.009990396368166052
0.24402440244024404,0.009992952397439256
0.245024502450245,0.009995113843149979
0.24602460246024602,0.009996880619950974
0.24702470247024702,0.009998252658078967
0.24802480248024802,0.009999229903357408
0.24902490249024903,0.009999812317198606
0.25002500250025,0.009999999876605267
0.251025102510251,0.009999792574171383
0.252025202520252,0.009999190418082535
0.253025302530253,0.00999819343211557
0.254025402540254,0.00999680165563766
0.255025502550255,0.009995015143604747
0.256025602560256,0.009992833966559374
0.25702570257025703,0.009990258210627902
0.25802580258025803,0.009987287977517106
0.25902590259025904,0.009983923384510157
0.26002600260026004,0.009980164564461996
0.26102610261026105,0.009976011665794086
0.26202620262026205,0.009971464852488548
0.26302630263026305,0.009966524304081693
0.264026402640264,0.009961190215656926
0.265026502650265,0.00995546279783705
0.266026602660266,0.009949342276775937
0.267026702670267,0.009942828894149615
0.268026802680268,0.00993592290714671
0.269026902690269,0.0099286245884583
0.27002700270027,0.009920934226267145
0.27102710271027103,0.009912852124236303
0.27202720272027203,0.009904378601497149
0.27302730273027304,0.009895513992636766
0.27402740274027404,0.009886258647684732
0.27502750275027504,0.009876612932099307
0.27602760276027605,0.009866577226752998
0.27702770277027705,0.009856151927917516
0.27802780278027805,0.009845337447248137
0.279027902790279,0.00983413421176744
0.28002800280028,0.009822542663848449
0.281028102810281,0.009810563261197162
0.282028202820282,0.009798196476834484
0.283028302830283,0.009785442799077546
0.284028402840284,0.00977230273152042
0.285028502850285,0.00975877679301424
0.28602860286028603,0.009744865517646707
0.28702870287028703,0.009730569454721009
0.28802880288028804,0.009715889168734126
0.28902890289028904,0.009700825239354538
0.29002900290029004,0.00968537826139934
0.29102910291029105,0.009669548844810758
0.29202920292029205,0.009653337614632052
0.29302930293029306,0.00963674521098285
0.294029402940294,0.009619772289033865
0.295029502950295,0.009602419518981024
0.296029602960296,0.00958468758601901
0.297029702970297,0.0095665771903142
0.298029802980298,0.009548089046977017
0.299029902990299,0.009529223886033706
0.3000300030003,0.00950998245239749
0.30103010301030103,0.009490365505839168
0.30203020302030203,0.009470373820957114
0.30303030303030304,0.009450008187146686
0.30403040304030404,0.00942926940856906
0.30503050305030505,0.009408158304119469
0.30603060306030605,0.009386675707394888
0.30703070307030705,0.009364822466661087
0.30803080308030806,0.009342599444819168
0.309030903090309,0.009320007519371471
0.31003100310031,0.009297047582386931
0.311031103110311,0.00927372054046586
0.312031203120312,0.009250027314704139
0.313031303130313,0.009225968840656852
0.314031403140314,0.009201546068301347
0.31503150315031503,0.00917675996199972
0.31603160316031603,0.009151611500460738
0.31703170317031704,0.009126101676701191
0.31803180318031804,0.009100231498006692
0.31903190319031904,0.009074001985891889
0.32003200320032005,0.009047414176060139
0.32103210321032105,0.009020469118362608
0.32203220322032206,0.008993167876756813
0.32303230323032306,0.008965511529264622
0.324032403240324,0.008937501167929678
0.325032503250325,0.00890913789877427
0.326032603260326,0.008880422841755685
0.327032703270327,0.008851357130721962
0.328032803280328,0.008821941913367128
0.329032903290329,0.008792178351185884
0.33003300330033003,0.008762067619427742
0.33103310331033103,0.008731610907050614
0.33203320332033204,0.00870080941667386
0.33303330333033304,0.008669664364530816
0.33403340334033405,0.008638176980420761
0.33503350335033505,0.008606348507660351
0.33603360336033605,0.008574180203034538
0.33703370337033706,0.008541673336746929
0.33803380338033806,0.008508829192369652
0.339033903390339,0.008475649066792655
0.34003400340034,0.008442134270172487
0.341034103410341,0.008408286125880605
0.342034203420342,0.008374105970451075
0.343034303430343,0.008339595153527824
0.344034403440344,0.008304755037811336
0.34503450345034503,0.008269586999004848
0.34603460346034604,0.008234092425760037
0.34703470347034704,0.008198272719622167
0.34803480348034804,0.008162129294974766
0.34903490349034905,0.008125663578983765
0.35003500350035005,0.008088877011541165
0.35103510351035105,0.008051771045208149
0.35203520352035206,0.008014347145157755
0.35303530353035306,0.007976606789117002
0.354035403540354,0.007938551467308564
0.355035503550355,0.007900182682391888
0.356035603560356,0.0078615019494039
0.357035703570357,0.007822510795699162
0.358035803580358,0.007783210760889567
0.35903590359035903,0.007743603396783539
0.36003600360036003,0.007703690267324765
0.36103610361036104,0.0076634729485304445
0.36203620362036204,0.007622953028429047
0.36303630363036304,0.007582132106997616
0.36403640364036405,0.007541011796098585
0.36503650365036505,0.0074995937194161436
0.36603660366036606,0.007457879512392109
0.36703670367036706,0.007415870822161358
0.36803680368036806,0.007373569307486782
0.369036903690369,0.007330976638693804
0.37003700370037,0.007288094497604396
0.371037103710371,0.007244924577470697
0.372037203720372,0.007201468582908138
0.373037303730373,0.007157728229828146
0.37403740374037403,0.0071137052453703695
0.37503750375037503,0.007069401367834499
0.37603760376037604,0.007024818346611616
0.37703770377037704,0.006979957942115128
0.37803780378037805,0.006934821925711244
0.37903790379037905,0.006889412079649037
0.38003800380038005,0.006843730196990063
0.38103810381038106,0.006797778081537582
0.38203820382038206,0.006751557547765299
0.38303830383038306,0.006705070420745739
0.384038403840384,0.006658318536078181
0.385038503850385,0.006611303739816169
0.386038603860386,0.0065640278883946235
0.387038703870387,0.006516492848556538
0.38803880388038803,0.006468700497279271
0.38903890389038903,0.006420652721700423
0.39003900390039004,0.006372351419043326
0.39103910391039104,0.006323798496542129
0.39203920392039204,0.0062749958713664965
0.39303930393039305,0.006225945470545887
0.39403940394039405,0.006176649230893481
0.39503950395039505,0.00612710909892969
0.39603960396039606,0.006077327030805315
0.39703970397039706,0.006027304992224281
0.39803980398039807,0.005977044958366032
0.39903990399039907,0.005926548913807545
0.4000400040004,0.005875818852444949
0.401040104010401,0.005824856777414813
0.402040204020402,0.005773664701015035
0.40304030403040303,0.005722244644625384
0.40404040404040403,0.005670598638627708
0.40504050405040504,0.0056187287223257235
0.40604060406040604,0.0055666369438645185
0.40704070407040704,0.0055143253601496675
0.40804080408040805,0.005461796036766026
0.40904090409040905,0.005409051047896146
0.41004100410041006,0.005356092476238395
0.41104110411041106,0.005302922412924699
0.41204120412041206,0.005249542957437999
0.41304130413041307,0.005195956217529322
0.41404140414041407,0.005142164309134568
0.415041504150415,0.0050881693562909594
0.416041604160416,0.005033973491053168
0.417041704170417,0.004979578853409132
0.41804180418041803,0.0049249875911955435
0.41904190419041903,0.004870201860013068
0.42004200420042004,0.004815223823141192
0.42104210421042104,0.004760055651452826
0.42204220422042205,0.004704699523328576
0.42304230423042305,0.004649157624570732
0.42404240424042405,0.0045934321483169635
0.42504250425042506,0.004537525294953706
0.42604260426042606,0.004481439272029289
0.42704270427042706,0.00442517629416676
0.42804280428042807,0.004368738582976452
0.4290429042904291,0.004312128366968244
0.43004300430043,0.004255347881463568
0.431043104310431,0.004198399368507156
0.43204320432043203,0.004141285076778499
0.43304330433043303,0.004084007261503059
0.43404340434043404,0.004026568184363219
0.43504350435043504,0.003968970113408983
0.43604360436043604,0.00391121532296841
0.43704370437043705,0.0038533060935578103
0.43804380438043805,0.0037952447117917
0.43904390439043905,0.0037370334702925235
0.44004400440044006,0.0036786746676001
0.44104410441044106,0.0036201706080808815
0.44204420442044207,0.003561523601836956
0.44304430443044307,0.0035027359646148427
0.4440444044404441,0.0034438100177140293
0.445044504450445,0.003384748087895329
0.446044604460446,0.003325552507289003
0.44704470447044703,0.0032662256133026706
0.44804480448044803,0.0032067697485290165
0.44904490449044904,0.0031471872606532885
0.45004500450045004,0.0030874805023605946
0.45104510451045104,0.0030276518312430194
0.45204520452045205,0.002967703609706508
0.45304530453045305,0.0029076382048775972
0.45404540454045406,0.0028474579885099443
0.45504550455045506,0.0027871653368906862
0.45604560456045606,0.002726762630746587
0.45704570457045707,0.002666252255150049
0.45804580458045807,0.0026056365994249243
0.4590459045904591,0.00254491805705219
0.46004600460046,0.0024840990255754155
0.461046104610461,0.0024231819065060885
0.46204620462046203,0.0023621691052288273
0.46304630463046303,0.002301063030906358
0.46404640464046404,0.002239866096384408
0.46504650465046504,0.002178580718096423
0.46604660466046605,0.002117209315968168
0.46704670467046705,0.0020557543133221494
0.46804680468046805,0.001994218136781942
0.46904690469046906,0.001932603216176365
0.47004700470047006,0.0018709119844435521
0.47104710471047107,0.00180914687753486
0.47204720472047207,0.0017473103343186986
0.4730473047304731,0.0016854047964842199
0.4740474047404741,0.0016234327084449238
0.475047504750475,0.0015613965172421155
0.47604760476047603,0.0014992986724482798
0.47704770477047703,0.0014371416260703762
0.47804780478047804,0.0013749278324530173
0.47904790479047904,0.0013126597481815346
0.48004800480048004,0.0012503398319849946
0.48104810481048105,0.0011879705446391044
0.48204820482048205,0.0011255543488690627
0.48304830483048306,0.00106309370925229
0.48404840484048406,0.0010005910921211283
0.48504850485048506,0.0009380489654654479
0.48604860486048607,0.0008754697988352121
0.48704870487048707,0.0008128560632429388
0.4880488048804881,0.0007502102310661464
0.4890489048904891,0.0006875347759497206
0.49004900490049,0.0006248321727082614
0.49104910491049103,0.0005621048972283188
0.49204920492049203,0.0004993554263706678
0.49304930493049304,0.00043658623787250363
0.49404940494049404,0.0003737998102495824
0.49504950495049505,0.00031099862269837197
0.49604960496049605,0.000248185154998149
0.49704970497049705,0.00018536188741309967
0.49804980498049806,0.00012253130059435696
0.49904990499049906,5.9695875482066824e-05
0.5000500050005,0.18393657867892863
0.5010501050105011,0.3893344119706971
0.502050205020502,0.4998711853820632
0.5030503050305031,0.389208746951232
0.504050405040504,0.1836852536020305
0.5050505050505051,-0.0003172793349806785
0.506050605060506,-0.00038007915812027416
0.5070507050705071,-0.00044286397338410064
0.508050805080508,-0.0005056313016393427
0.5090509050905091,-0.0005683786644437026
0.51005100510051,-0.0006311035841432197
0.5110511051105111,-0.0006938035839701573
0.512051205120512,-0.000756476188140738
0.513051305130513,-0.0008191189219529478
0.5140514051405141,-0.0008817293118842527
0.515051505150515,-0.0009443048856892281
0.5160516051605161,-0.0010068431724972278
0.517051705170517,-0.0010693417029099049
0.5180518051805181,-0.0011317980090987713
0.519051905190519,-0.0011942096249025823
0.5200520052005201,-0.001256574085924767
0.521052105210521,-0.0013188889296306956
0.5220522052205221,-0.0013811516954449674
0.523052305230523,-0.0014433599248485083
0.5240524052405241,-0.0015055111614757008
0.525052505250525,-0.0015676029512113328
0.5260526052605261,-0.0016296328422875537
0.527052705270527,-0.0016915983853806197
0.528052805280528,-0.0017534971337076744
0.5290529052905291,-0.0018153266431233184
0.53005300530053,-0.00187708447221612
0.5310531053105311,-0.0019387681824050594
0.532053205320532,-0.0020003753380357604
0.5330533053305331,-0.002061903506476715
0.534053405340534,-0.0021233502582152968
0.5350535053505351,-0.0021847131669537447
0.536053605360536,-0.0022459898097049067
0.5370537053705371,-0.002307177766887968
0.538053805380538,-0.002368274622423947
0.5390539053905391,-0.002429277963831148
0.54005400540054,-0.002490185382320361
0.5410541054105411,-0.002550994472890029
0.5420542054205421,-0.0026117028344211663
0.543054305430543,-0.00267230806977222
0.5440544054405441,-0.002732807785873682
0.545054505450545,-0.002793199593822586
0.5460546054605461,-0.0028534811089768737
0.547054705470547,-0.0029136499510495025
0.5480548054805481,-0.0029737037442024773
0.549054905490549,-0.003033640117140628
0.5500550055005501,-0.003093456703205288
0.551055105510551,-0.003153151140467689
0.5520552055205521,-0.0032127210718222734
0.553055305530553,-0.003272164145079726
0.5540554055405541,-0.0033314780130599035
0.555055505550555,-0.003390660333684456
0.5560556055605561,-0.0034497087700693587
0.5570557055705571,-0.0035086209906171418
0.558055805580558,-0.003567394669109007
0.5590559055905591,-0.0036260274847966377
0.56005600560056,-0.0036845171224938428
0.5610561056105611,-0.003742861272668009
0.562056205620562,-0.0038010576315312444
0.5630563056305631,-0.0038591039011313917
0.564056405640564,-0.003916997789442724
0.5650565056505651,-0.003974737010456501
0.566056605660566,-0.004032319284271174
0.5670567056705671,-0.004089742337182461
0.568056805680568,-0.004147003901773085
0.5690569056905691,-0.004204101717002357
0.57005700570057,-0.0042610335282953936
0.5710571057105711,-0.0043177970876321975
0.5720572057205721,-0.004374390153636378
0.573057305730573,-0.004430810491663696
0.5740574057405741,-0.004487055873890276
0.575057505750575,-0.0045431240794005625
0.5760576057605761,-0.004599012894275061
0.577057705770577,-0.004654720111677698
0.5780578057805781,-0.004710243531943026
0.579057905790579,-0.004765580962663004
0.5800580058005801,-0.004820730218773649
0.581058105810581,-0.004875689122641242
0.5820582058205821,-0.004930455504148376
0.583058305830583,-0.004985027200779596
0.5840584058405841,-0.005039402057706822
0.585058505850585,-0.005093577927874411
0.5860586058605861,-0.00514755267208397
0.5870587058705871,-0.005201324159078774
0.588058805880588,-0.005254890265627969
0.5890589058905891,-0.005308248876610395
0.59005900590059,-0.005361397885098083
0.5910591059105911,-0.005414335192439481
0.592059205920592,-0.005467058708342291
0.5930593059305931,-0.005519566350956052
0.594059405940594,-0.0055718560469542825
0.5950595059505951,-0.005623925731616407
0.596059605960596,-0.005675773348909237
0.5970597059705971,-0.0057273968515682006
0.598059805980598,-0.005778794201178136
0.5990599059905991,-0.005829963368253817
0.6000600060006,-0.005880902332320061
0.6010601060106011,-0.0059316090819915455
0.6020602060206021,-0.005982081615052185
0.603060306030603,-0.006032317938534225
0.6040604060406041,-0.006082316068796937
0.605060506050605,-0.006132074031604911
0.6060606060606061,-0.006181589862206052
0.607060706070607,-0.006230861605409126
0.6080608060806081,-0.006279887315661
0.609060906090609,-0.006328665057123424
0.6100610061006101,-0.006377192903749502
0.611061106110611,-0.006425468939359717
0.6120612061206121,-0.006473491257717632
0.613061306130613,-0.00652125796260511
0.6140614061406141,-0.0065687671678972374
0.6150615061506151,-0.0066160169976367525
0.6160616061606161,-0.0066630055861081755
0.6170617061706171,-0.006709731077911417
0.618061806180618,-0.006756191628035089
0.6190619061906191,-0.006802385401929342
0.62006200620062,-0.006848310575578287
0.6210621062106211,-0.006893965335572049
0.622062206220622,-0.006939347879178338
0.6230623062306231,-0.006984456414413677
0.624062406240624,-0.00702928916011411
0.6250625062506251,-0.00707384434600557
0.626062606260626,-0.007118120212773759
0.6270627062706271,-0.007162115012133641
0.628062806280628,-0.0072058270068984425
0.6290629062906291,-0.007249254471048274
0.6300630063006301,-0.007292395689798267
0.6310631063106311,-0.007335248959666306
0.6320632063206321,-0.007377812588540258
0.633063306330633,-0.007420084895744828
0.6340634063406341,-0.0074620642121078894
0.635063506350635,-0.007503748880026404
0.6360636063606361,-0.007545137253531892
0.637063706370637,-0.007586227698355389
0.6380638063806381,-0.00762701859199202
0.639063906390639,-0.007667508323765019
0.6400640064006401,-0.007707695294889369
0.641064106410641,-0.007747577918534914
0.6420642064206421,-0.007787154619889014
0.643064306430643,-0.007826423836218739
0.6440644064406441,-0.00786538401693257
0.6450645064506451,-0.007904033623641605
0.6460646064606461,-0.007942371130220362
0.6470647064706471,-0.007980395022866968
0.648064806480648,-0.00801810380016298
0.6490649064906491,-0.008055495973132671
0.65006500650065,-0.008092570065301787
0.6510651065106511,-0.008129324612755888
0.652065206520652,-0.00816575816419813
0.6530653065306531,-0.008201869281006574
0.654065406540654,-0.008237656537291003
0.6550655065506551,-0.008273118519949212
0.656065606560656,-0.008308253828722797
0.6570657065706571,-0.00834306107625249
0.658065806580658,-0.008377538888132877
0.6590659065906591,-0.008411685902966723
0.6600660066006601,-0.008445500772418693
0.6610661066106611,-0.00847898216126862
0.6620662066206621,-0.008512128747464197
0.663066306630663,-0.00854493922217321
0.6640664066406641,-0.008577412289835197
0.665066506650665,-0.008609546668212616
0.6660666066606661,-0.008641341088441478
0.667066706670667,-0.008672794295081424
0.6680668066806681,-0.00870390504616535
0.669066906690669,-0.008734672113248384
0.6700670067006701,-0.008765094281456443
0.671067106710671,-0.008795170349534177
0.6720672067206721,-0.008824899129892413
0.673067306730673,-0.008854279448655043
0.6740674067406741,-0.008883310145705384
0.6750675067506751,-0.00891199007473196
0.6760676067606761,-0.008940318103273821
0.6770677067706771,-0.008968293112765187
0.678067806780678,-0.008995913998579675
0.6790679067906791,-0.009023179670073898
0.68006800680068,-0.009050089050630513
0.6810681068106811,-0.009076641077700755
0.682068206820682,-0.009102834702846382
0.6830683068306831,-0.00912866889178108
0.684068406840684,-0.009154142624411296
0.6850685068506851,-0.009179254894876527
0.686068606860686,-0.009204004711589013
0.6870687068706871,-0.009228391097272944
0.688068806880688,-0.009252413089002974
0.6890689068906891,-0.009276069738242323
0.6900690069006901,-0.00929936011088016
0.6910691069106911,-0.009322283287268541
0.6920692069206921,-0.009344838362258688
0.693069306930693,-0.00936702444523675
0.6940694069406941,-0.009388840660158958
0.695069506950695,-0.009410286145586227
0.6960696069606961,-0.00943136005471816
0.697069706970697,-0.009452061555426492
0.6980698069806981,-0.00947238983028795
0.699069906990699,-0.00949234407661651
0.7000700070007001,-0.009511923506495134
0.701070107010701,-0.009531127346806828
0.7020702070207021,-0.009549954839265216
0.7030703070307031,-0.009568405240444455
0.7040704070407041,-0.009586477821808596
0.7050705070507051,-0.009604171869740363
0.7060706070607061,-0.00962148668556931
0.7070707070707071,-0.009638421585599423
0.708070807080708,-0.009654975901136113
0.7090709070907091,-0.009671148978512628
0.71007100710071,-0.009686940179115842
0.7110711071107111,-0.009702348879411501
0.712071207120712,-0.009717374470968819
0.7130713071307131,-0.009732016360484512
0.714071407140714,-0.009746273969806232
0.7150715071507151,-0.009760146735955386
0.716071607160716,-0.009773634111149367
0.7170717071707171,-0.009786735562823194
0.7180718071807181,-0.009799450573650522
0.7190719071907191,-0.009811778641564094
0.7200720072007201,-0.009823719279775541
0.7210721072107211,-0.009835272016794619
0.7220722072207221,-0.009846436396447823
0.723072307230723,-0.009857211977896397
0.7240724072407241,-0.009867598335653744
0.725072507250725,-0.009877595059602225
0.7260726072607261,-0.009887201755009355
0.727072707270727,-0.009896418042543384
0.7280728072807281,-0.009905243558288281
0.729072907290729,-0.009913677953758105
0.7300730073007301,-0.009921720895910759
0.731073107310731,-0.009929372067161144
0.7320732073207321,-0.009936631165393702
0.7330733073307331,-0.009943497903974339
0.7340734073407341,-0.00994997201176175
0.7350735073507351,-0.009956053233118115
0.7360736073607361,-0.009961741327919212
0.7370737073707371,-0.009967036071563877
0.738073807380738,-0.009971937254982884
0.7390739073907391,-0.009976444684647203
0.74007400740074,-0.009980558182575632
0.7410741074107411,-0.009984277586341834
0.742074207420742,-0.009987602749080744
0.7430743074307431,-0.009990533539494376
0.744074407440744,-0.009993069841856994
0.7450745074507451,-0.009995211556019698
0.746074607460746,-0.009996958597414366
0.7470747074707471,-0.009998310897057
0.7480748074807481,-0.009999268401550446
0.7490749074907491,-0.009999831073086505
0.7500750075007501,-0.009999998889447427
0.7510751075107511,-0.00999977184400678
0.7520752075207521,-0.009999149945729728
0.753075307530753,-0.009998133219172655
0.7540754075407541,-0.009996721704482217
0.755075507550755,-0.009994915457393744
0.7560756075607561,-0.009992714549229039
0.757075707570757,-0.00999011906689357
0.7580758075807581,-0.00998712911287303
0.759075907590759,-0.009983744805229297
0.7600760076007601,-0.009979966277595764
0.761076107610761,-0.009975793679172076
0.7620762076207621,-0.009971227174718222
0.7630763076307631,-0.009966266944548037
0.7640764076407641,-0.009960913184522085
0.7650765076507651,-0.009955166106039927
0.7660766076607661,-0.00994902593603176
0.7670767076707671,-0.009942492916949472
0.768076807680768,-0.00993556730675706
0.7690769076907691,-0.009928249378920445
0.77007700770077,-0.00992053942239668
0.7710771077107711,-0.009912437741622523
0.772077207720772,-0.009903944656502446
0.7730773077307731,-0.009895060502395966
0.774077407740774,-0.00988578563010444
0.7750775077507751,-0.009876120405857182
0.7760776077607761,-0.00986606521129702
0.7770777077707771,-0.009855620443465224
0.7780778077807781,-0.009844786514785823
0.7790779077907791,-0.009833563853049324
0.7800780078007801,-0.009821952901395821
0.7810781078107811,-0.00980995411829749
0.7820782078207821,-0.0097975679775405
0.7830783078307831,-0.009784794968206287
0.7840784078407841,-0.009771635594652257
0.785078507850785,-0.009758090376491859
0.7860786078607861,-0.009744159848574081
0.787078707870787,-0.009729844560962316
0.7880788078807881,-0.009715145078912656
0.789078907890789,-0.009700061982851556
0.7900790079007901,-0.009684595868352935
0.7910791079107911,-0.009668747346114647
0.7920792079207921,-0.009652517041934358
0.7930793079307931,-0.009635905596684861
0.7940794079407941,-0.009618913666288743
0.7950795079507951,-0.009601541921692509
0.7960796079607961,-0.009583791048840067
0.7970797079707971,-0.009565661748645662
0.7980798079807981,-0.009547154736966185
0.7990799079907991,-0.009528270744572914
0.8000800080008,-0.00950901051712266
0.8010801080108011,-0.009489374815128317
0.802080208020802,-0.009469364413928837
0.8030803080308031,-0.009448980103658612
0.804080408040804,-0.009428222689216288
0.8050805080508051,-0.00940709299023295
0.8060806080608061,-0.0093855918410398
0.8070807080708071,-0.009363720090635182
0.8080808080808081,-0.009341478602651068
0.8090809080908091,-0.009318868255318954
0.8100810081008101,-0.009295889941435194
0.8110811081108111,-0.009272544568325719
0.8120812081208121,-0.009248833057810255
0.8130813081308131,-0.009224756346165866
0.8140814081408141,-0.009200315384090043
0.815081508150815,-0.009175511136663124
0.8160816081608161,-0.009150344583310191
0.817081708170817,-0.009124816717762425
0.8180818081808181,-0.00909892854801783
0.819081908190819,-0.009072681096301456
0.8200820082008201,-0.009046075399025024
0.8210821082108211,-0.009019112506746006
0.8220822082208221,-0.00899179348412614
0.8230823082308231,-0.008964119409889407
0.8240824082408241,-0.00893609137677939
0.8250825082508251,-0.008907710491516195
0.8260826082608261,-0.008878977874752683
0.8270827082708271,-0.00884989466103027
0.8280828082808281,-0.008820461998734094
0.8290829082908291,-0.00879068105004769
0.83008300830083,-0.008760552990907097
0.8310831083108311,-0.008730079010954418
0.832083208320832,-0.008699260313490846
0.8330833083308331,-0.008668098115429155
0.834083408340834,-0.00863659364724566
0.8350835083508351,-0.00860474815293159
0.8360836083608361,-0.00857256288994402
0.8370837083708371,-0.008540039129156182
0.8380838083808381,-0.008507178154807296
0.8390839083908391,-0.008473981264451858
0.8400840084008401,-0.00844044976890841
0.8410841084108411,-0.008406584992207767
0.8420842084208421,-0.008372388271540764
0.8430843084308431,-0.008337860957205404
0.8440844084408441,-0.008303004412553616
0.845084508450845,-0.008267820013937334
0.8460846084608461,-0.008232309150654222
0.847084708470847,-0.00819647322489279
0.8480848084808481,-0.008160313651676998
0.849084908490849,-0.008123831858810443
0.8500850085008501,-0.008087029286819923
0.8510851085108511,-0.008049907388898589
0.8520852085208521,-0.008012467630848553
0.8530853085308531,-0.007974711491023011
0.8540854085408541,-0.00793664046026786
0.8550855085508551,-0.007898256041862863
0.8560856085608561,-0.00785955975146223
0.8570857085708571,-0.007820553117034838
0.8580858085808581,-0.007781237678803846
0.8590859085908591,-0.007741614989185907
0.86008600860086,-0.007701686612729852
0.8610861086108611,-0.007661454126054925
0.862086208620862,-0.007620919117788517
0.8630863086308631,-0.007580083188503447
0.8640864086408641,-0.007538947950654752
0.8650865086508651,-0.007497515028516021
0.8660866086608661,-0.0074557860581152815
0.8670867086708671,-0.0074137626871703345
0.8680868086808681,-0.007371446575023779
0.8690869086908691,-0.007328839392577422
0.8700870087008701,-0.007285942822226332
0.8710871087108711,-0.007242758557792403
0.8720872087208721,-0.007199288304457469
0.8730873087308731,-0.007155533778695969
0.8740874087408741,-0.007111496708207201
0.875087508750875,-0.007067178831847039
0.8760876087608761,-0.0070225818995593246
0.877087708770877,-0.006977707672306779
0.8780878087808781,-0.006932557922001391
0.8790879087908791,-0.006887134431434556
0.8800880088008801,-0.006841438994206597
0.8810881088108811,-0.00679547341465598
0.8820882088208821,-0.006749239507788064
0.8830883088308831,-0.006702739099203427
0.8840884088408841,-0.006655974025025776
0.8850885088508851,-0.006608946131829481
0.8860886088608861,-0.006561657276566584
0.8870887088708871,-0.0065141093264935715
0.8880888088808881,-0.006466304159097567
0.8890889088908891,-0.006418243662022233
0.89008900890089,-0.006369929732993227
0.8910891089108911,-0.0063213642797432645
0.892089208920892,-0.006272549219936798
0.8930893089308931,-0.006223486481094283
0.8940894089408941,-0.006174178000516083
0.8950895089508951,-0.006124625725205954
0.8960896089608961,-0.006074831611794204
0.8970897089708971,-0.006024797626460357
0.8980898089808981,-0.005974525744855617
0.8990899089908991,-0.005924017952024753
0.9000900090009001,-0.005873276242327813
0.9010901090109011,-0.005822302619361302
0.9020902090209021,-0.005771099095879107
0.9030903090309031,-0.005719667693713002
0.9040904090409041,-0.005668010443692826
0.905090509050905,-0.005616129385566284
0.9060906090609061,-0.005564026567918414
0.907090709070907,-0.005511704048090688
0.9080908090809081,-0.005459163892099771
0.9090909090909091,-0.005406408174555981
0.9100910091009101,-0.005353438978581288
0.9110911091109111,-0.005300258395727161
0.9120912091209121,-0.005246868525891901
0.9130913091309131,-0.005193271477237761
0.9140914091409141,-0.005139469366107695
0.9150915091509151,-0.005085464316941793
0.9160916091609161,-0.005031258462193382
0.9170917091709171,-0.004976853942244871
0.9180918091809182,-0.004922252905323144
0.9190919091909191,-0.004867457507414844
0.92009200920092,-0.004812469912181164
0.9210921092109211,-0.0047572922908724145
0.922092209220922,-0.004701926822242355
0.9230923092309231,-0.004646375692462092
0.9240924092409241,-0.004590641095033785
0.9250925092509251,-0.004534725230704035
0.9260926092609261,-0.004478630307376979
0.9270927092709271,-0.004422358540027102
0.9280928092809281,-0.00436591215061182
0.9290929092909291,-0.00430929336798365
0.9300930093009301,-0.004252504427802316
0.9310931093109311,-0.004195547572446379
0.9320932093209321,-0.004138425050924744
0.9330933093309332,-0.004081139118787835
0.9340934093409341,-0.004023692038038541
0.935093509350935,-0.003966086077042893
0.9360936093609361,-0.003908323510440499
0.9370937093709371,-0.003850406619054722
0.9380938093809381,-0.0037923376898026163
0.9390939093909391,-0.0037341190156046622
0.9400940094009401,-0.003675752895294141
0.9410941094109411,-0.003617241633526474
0.9420942094209421,-0.0035585875406881334
0.9430943094309431,-0.003499792932805453
0.9440944094409441,-0.0034408601314531695
0.9450945094509451,-0.0033817914636627535
0.9460946094609461,-0.003322589261830512
0.9470947094709471,-0.0032632558636255388
0.9480948094809482,-0.0032037936118973105
0.9490949094909491,-0.003144204854583305
0.95009500950095,-0.003084491944616167
0.9510951095109511,-0.003024657239830877
0.9520952095209521,-0.0029647031028716565
0.9530953095309531,-0.0029046319010985868
0.9540954095409541,-0.0028444460064942535
0.9550955095509551,-0.0027841477955699878
0.9560956095609561,-0.002723739649272075
0.9570957095709571,-0.0026632239528877276
0.9580958095809581,-0.0026026030959509
0.9590959095909591,-0.002541879472147928
0.9600960096009601,-0.0024810554792230525
0.9610961096109611,-0.0024201335188836497
0.9620962096209621,-0.002359115996705512
0.9630963096309632,-0.0022980053220377737
0.9640964096409641,-0.002236803907907811
0.965096509650965,-0.002175514170925957
0.9660966096609661,-0.002114138531190076
0.9670967096709671,-0.0020526794121900056
0.9680968096809681,-0.001991139240711861
0.9690969096909691,-0.0019295204467422087
0.9700970097009701,-0.0018678254633721103
0.9710971097109711,-0.0018060567267010907
0.9720972097209721,-0.0017442166757408507
0.9730973097309731,-0.0016823077523190797
0.9740974097409741,-0.0016203324009829445
0.9750975097509751,-0.0015582930689026053
0.9760976097609761,-0.0014961922057745772
0.9770977097709771,-0.0014340322637250017
0.9780978097809782,-0.0013718156972128133
0.9790979097909791,-0.001309544962932865
0.98009800980098,-0.0012472225197188353
0.9810981098109811,-0.0011848508284462186
0.9820982098209821,-0.0011224323519351534
0.9830983098309831,-0.001059969554853086
0.9840984098409841,-0.000997464903617576
0.9850985098509851,-0.0009349208662988075
0.9860986098609861,-0.0008723399125221805
0.9870987098709871,-0.0008097245133707845
0.9880988098809881,-0.0007470771412878255
0.9890989098909891,-0.0006844002699789897
0.9900990099009901,-0.0006216963743148108
0.9910991099109911,-0.0005589679302328491
0.9920992099209921,-0.0004962174146400501
0.9930993099309932,-0.00043344730531484377
0.9940994099409941,-0.0003706600808093506
0.995099509950995,-0.0003078582203515044
0.9960996099609961,-0.00024504420374715666
0.9970997099709971,-0.00018222051128215878
0.9980998099809981,-0.00011938962362442515
0.9990999099909991,-5.655402172598071e-05
1.000100010001,6.283813275002178e-06
1.001100110011001,6.912140015217448e-05
1.0021002100210021,0.00013195625768899346
1.0031003100310032,0.00019478590477666095
1.004100410041004,0.0002576078605121375
1.005100510051005,0.00032041964429611213
1.0061006100610062,0.00038321877593087245
1.0071007100710072,0.00044600277571833535
1.008100810081008,0.0005087691645578723
1.009100910091009,0.0005715154640442972
1.0101010101010102,0.000634239196565649
1.011101110111011,0.0006969378854010241
1.012101210121012,0.0007596090548184511
1.0131013101310131,0.0008222502301725685
1.0141014101410142,0.000884858938002349
1.015101510151015,0.0009474327061288012
1.016101610161016,0.001009969063752596
1.0171017101710171,0.001072465541551549
1.0181018101810182,0.0011349196717782225
1.019101910191019,0.0011973289883572783
1.02010201020102,0.0012596910269829515
1.0211021102110212,0.0013220033252162764
1.0221022102210222,0.0013842634225823278
1.023102310231023,0.0014464688606674124
1.024102410241024,0.0015086171832161476
1.0251025102510252,0.0015707059362283751
1.026102610261026,0.001632732668056135
1.027102710271027,0.001694694929500474
1.0281028102810281,0.001756590273908076
1.0291029102910292,0.001818416257267967
1.03010301030103,0.0018801704383079319
1.031103110311031,0.0019418503785910085
1.0321032103210321,0.0020034536426116922
1.0331033103310332,0.0020649777978921143
1.034103410341034,0.002126420415078125
1.035103510351035,0.00218777906803523
1.0361036103610362,0.00224905133394431
1.0371037103710372,0.002310234793397381
1.038103810381038,0.002371327030493049
1.039103910391039,0.00243232563293199
1.0401040104010402,0.0024932281921121323
1.041104110411041,0.0025540323032237585
1.042104210421042,0.0026147355653445424
1.0431043104310431,0.002675335581534274
1.0441044104410442,0.0027358299589295134
1.045104510451045,0.0027962163088381103
1.046104610461046,0.0028564922468335345
1.0471047104710471,0.00291665539284895
1.0481048104810482,0.002976703371271288
1.049104910491049,0.003036633811034955
1.05010501050105,0.0030964443457155992
1.0511051105110512,0.0031561326136233855
1.0521052105210522,0.003215696257896343
1.053105310531053,0.0032751329265934223
1.054105410541054,0.003334440272787372
1.0551055105510552,0.003393615954657375
1.056105610561056,0.0034526576355815115
1.057105710571057,0.003511562984229098
1.0581058105810581,0.0035703296746526676
1.0591059105910592,0.00362895538637982
1.06010601060106,0.0036874378045048846
1.061106110611061,0.00374577461978033
1.0621062106210621,0.0038039635287078783
1.0631063106310632,0.00386200223362955
1.064106410641064,0.003919888442818307
1.065106510651065,0.003977619870568637
1.0661066106610662,0.004035194237286728
1.0671067106710672,0.004092609269580495
1.068106810681068,0.004149862700349378
1.0691069106910691,0.004206952268873868
1.0701070107010702,0.0042638757209047026
1.071107110711071,0.004320630808751951
1.072107210721072,0.004377215291373762
1.0731073107310731,0.004433626934464792
1.0741074107410742,0.004489863510544506
1.075107510751075,0.004545922799045059
1.076107610761076,0.004601802586399065
1.0771077107710771,0.004657500666126926
1.0781078107810782,0.0047130148389239734
1.079107910791079,0.004768342912747335
1.08010801080108,0.004823482702902501
1.0811081108110812,0.004878432032129518
1.0821082108210822,0.004933188730689048
1.083108310831083,0.004987750636447962
1.0841084108410841,0.005042115594964805
1.0851085108510852,0.005096281459574792
1.086108610861086,0.005150246091474573
1.087108710871087,0.005204007359806758
1.0881088108810881,0.005257563141743985
1.0891089108910892,0.00531091132257275
1.09010901090109,0.005364049795776938
1.091109110911091,0.005416976463121014
1.0921092109210921,0.005469689234732801
1.0931093109310932,0.005522186029186086
1.094109410941094,0.005574464773582735
1.095109510951095,0.005626523403634618
1.0961096109610962,0.005678359863745065
1.0971097109710972,0.005729972107090029
1.098109810981098,0.0057813580956989465
1.0991099109910991,0.00583251580053521
1.1001100110011002,0.005883443201576222
1.101110111011101,0.0059341382878932295
1.102110211021102,0.005984599057730717
1.1031103110311031,0.006034823518585398
1.1041104110411042,0.006084809687284951
1.105110511051105,0.006134555590066278
1.106110611061106,0.0061840592626535
1.1071107110711071,0.006233318750335466
1.1081108110811082,0.006282332108042942
1.109110911091109,0.006331097400425439
1.11011101110111,0.006379612701927646
1.1111111111111112,0.0064278760968653915
1.1121112111211122,0.0064758856795013725
1.113111311131113,0.0065236395541203255
1.1141114111411141,0.006571135835103968
1.1151115111511152,0.006618372647005383
1.116111611161116,0.006665348124623078
1.117111711171117,0.006712060413074697
1.1181118111811181,0.006758507667870194
1.1191119111911192,0.006804688054984685
1.12011201120112,0.006850599750930881
1.121112111211121,0.006896240942831103
1.1221122112211221,0.006941609828488804
1.1231123112311232,0.006986704616459807
1.124112411241124,0.007031523526122971
1.125112511251125,0.007076064787750581
1.1261126112611262,0.007120326642578158
1.1271127112711272,0.007164307342873921
1.128112811281128,0.007208005152007824
1.1291129112911291,0.0072514183445201285
1.1301130113011302,0.007294545206189486
1.131113111311131,0.007337384034100676
1.132113211321132,0.007379933136711854
1.1331133113311331,0.007422190833921284
1.1341134113411342,0.007464155457133747
1.135113511351135,0.007505825349326368
1.136113611361136,0.007547198865114113
1.1371137113711371,0.007588274370814704
1.1381138113811382,0.007629050244513127
1.139113911391139,0.0076695248761257115
1.14011401140114,0.007709696667463702
1.1411141114111412,0.007749564032296314
1.1421142114211422,0.007789125396413432
1.143114311431143,0.007828379197687717
1.1441144114411441,0.007867323886136346
1.1451145114511452,0.007905957923982162
1.146114611461146,0.007944279785714398
1.147114711471147,0.007982287958148973
1.1481148114811481,0.00801998094048817
1.1491149114911492,0.008057357244379924
1.15011501150115,0.008094415393976602
1.151115111511151,0.008131153925993286
1.1521152115211521,0.008167571389765505
1.1531153115311532,0.008203666347306574
1.154115411541154,0.008239437373364319
1.155115511551155,0.008274883055477434
1.1561156115611562,0.008310001994031159
1.1571157115711572,0.008344792802312598
1.158115811581158,0.00837925410656548
1.1591159115911591,0.00841338454604439
1.1601160116011602,0.008447182773068497
1.161116111611161,0.008480647453074763
1.162116211621162,0.008513777264670664
1.1631163116311631,0.008546570899686351
1.1641164116411642,0.008579027063226288
1.165116511651165,0.008611144473720413
1.166116611661166,0.008642921862974742
1.1671167116711672,0.008674357976221403
1.1681168116811682,0.008705451572168238
1.169116911691169,0.008736201423047768
1.17011701170117,0.008766606314665715
1.1711171117111712,0.008796665046448921
1.1721172117211722,0.008826376431492746
1.173117311731173,0.008855739296607958
1.1741174117411741,0.008884752482367057
1.1751175117511752,0.008913414843150027
1.176117611761176,0.008941725247189598
1.177117711771177,0.008969682576615944
1.1781178117811781,0.008997285727500784
1.1791179117911792,0.009024533609901016
1.18011801180118,0.009051425147901717
1.181118111811181,0.009077959279658666
1.1821182118211822,0.009104134957440238
1.1831183118311832,0.009129951147668784
1.184118411841184,0.009155406830961452
1.185118511851185,0.009180501002170443
1.1861186118611862,0.009205232670422675
1.1871187118711872,0.009229600859158932
1.188118811881188,0.009253604606172413
1.1891189118911891,0.009277242963646742
1.1901190119011902,0.00930051499819337
1.191119111911191,0.009323419790888441
1.192119211921192,0.00934595643730909
1.1931193119311931,0.00936812404756914
1.1941194119411942,0.009389921746354233
1.195119511951195,0.009411348672956414
1.196119611961196,0.009432403981308114
1.1971197119711972,0.00945308684001553
1.1981198119811982,0.009473396432391498
1.199119911991199,0.00949333195648769
1.2001200120012,0.009512892625126336
1.2011201120112012,0.009532077665931261
1.2021202120212022,0.009550886321358401
1.203120312031203,0.009569317848725716
1.2041204120412041,0.00958737152024252
1.2051205120512052,0.009605046623038203
1.206120612061206,0.009622342459190395
1.207120712071207,0.009639258345752522
1.2081208120812081,0.009655793614780759
1.2091209120912092,0.00967194761336043
1.21012101210121,0.009687719703631756
1.211121112111211,0.009703109262815077
1.2121212121212122,0.009718115683235419
1.2131213121312132,0.009732738372346492
1.214121412141214,0.009746976752754096
1.215121512151215,0.00976083026223892
1.2161216121612162,0.009774298353778726
1.2171217121712172,0.009787380495569969
1.218121812181218,0.009800076171048779
1.2191219121912191,0.00981238487891138
1.2201220122012202,0.009824306133133854
1.221122112211221,0.009835839462991361
1.222122212221222,0.009846984413076708
1.2231223122312231,0.009857740543318342
1.2241224122412242,0.009868107428997715
1.225122512251225,0.009878084660766067
1.226122612261226,0.00988767184466059
1.2271227122712272,0.009896868602119963
1.2281228122812282,0.009905674569999325
1.229122912291229,0.009914089400584606
1.2301230123012301,0.00992211276160625
1.2311231123112312,0.009929744336252348
1.2321232123212322,0.00993698382318113
1.233123312331233,0.00994383093653288
1.2341234123412341,0.009950285405941221
1.2351235123512352,0.009956346976543776
1.236123612361236,0.009962015408992253
1.237123712371237,0.009967290479461884
1.2381238123812381,0.009972171979660261
1.2391239123912392,0.009976659716835567
1.24012401240124,0.00998075351378418
1.241124112411241,0.009984453208857684
1.2421242124212422,0.009987758655969235
1.2431243124312432,0.009990669724599336
1.244124412441244,0.009993186299800994
1.2451245124512451,0.00999530828220426
1.2461246124612462,0.00999703558802014
1.2471247124712472,0.009998368149043922
1.248124812481248,0.009999305912657852
1.2491249124912491,0.009999848841833225
1.2501250125012502,0.00999999691513184
1.251125112511251,0.009999750126706848
1.252125212521252,0.009999108486302982
1.2531253125312531,0.00999807201925617
1.2541254125412542,0.009996640766492542
1.255125512551255,0.009994814784526813
1.256125612561256,0.009992594145460039
1.2571257125712572,0.009989978936976786
1.2581258125812582,0.009986969262341659
1.259125912591259,0.009983565240395228
1.2601260126012601,0.009979767005549325
1.2611261126112612,0.00997557470778176
1.2621262126212622,0.00997098851263037
1.263126312631263,0.00996600860118651
1.2641264126412641,0.009960635170087877
1.2651265126512652,0.009954868431510763
1.266126612661266,0.009948708613161675
1.267126712671267,0.009942155958268334
1.2681268126812681,0.009935210725570081
1.2691269126912692,0.009927873189307657
1.27012701270127,0.009920143639212372
1.271127112711271,0.009912022380494668
1.2721272127212722,0.009903509733832064
1.2731273127312732,0.009894606035356501
1.274127412741274,0.009885311636641057
1.2751275127512751,0.009875626904686073
1.2761276127612762,0.009865552221904666
1.2771277127712772,0.009855087986107618
1.278127812781278,0.009844234610487675
1.2791279127912791,0.00983299252360323
1.2801280128012802,0.009821362169361398
1.281128112811281,0.009809344007000498
1.282128212821282,0.009796938511071898
1.2831283128312831,0.009784146171421308
1.2841284128412842,0.009770967493169412
1.285128512851285,0.009757402996691929
1.286128612861286,0.009743453217599065
1.2871287128712872,0.009729118706714376
1.2881288128812882,0.009714400030053005
1.289128912891289,0.00969929776879934
1.2901290129012901,0.009683812519284048
1.2911291129112912,0.009667944892960547
1.2921292129212922,0.009651695516380863
1.293129312931293,0.009635065031170884
1.2941294129412941,0.009618054094005006
1.2951295129512952,0.009600663376580243
1.296129612961296,0.00958289356558967
1.297129712971297,0.009564745362695316
1.2981298129812981,0.009546219484500474
1.2991299129912992,0.009527316662521391
1.3001300130013,0.00950803764315839
1.301130113011301,0.00948838318766638
1.3021302130213022,0.009468354072124815
1.3031303130313032,0.009447951087407048
1.304130413041304,0.009427175039149107
1.3051305130513051,0.009406026747717858
1.3061306130613062,0.009384507048178649
1.3071307130713072,0.009362616790262296
1.308130813081308,0.009340356838331574
1.3091309130913091,0.009317728071347042
1.3101310131013102,0.009294731382832374
1.311131113111311,0.009271367680839063
1.312131213121312,0.009247637887910552
1.3131313131313131,0.009223542941045815
1.3141314131413142,0.00919908379166238
1.315131513151315,0.009174261405558739
1.316131613161316,0.009149076762876195
1.3171317131713172,0.009123530858060214
1.3181318131813182,0.00909762469982109
1.319131913191319,0.009071359311094184
1.3201320132013201,0.009044735728999468
1.3211321132113212,0.009017755004800626
1.3221322132213222,0.008990418203863518
1.323132313231323,0.008962726405614104
1.3241324132413241,0.008934680703495835
1.3251325132513252,0.008906282204926482
1.326132613261326,0.008877532031254414
1.327132713271327,0.008848431317714275
1.3281328132813282,0.008818981213382229
1.3291329132913292,0.00878918288113051
1.33013301330133,0.008759037497581586
1.331133113311331,0.008728546253061614
1.3321332133213322,0.008697710351553511
1.3331333133313332,0.008666531010649386
1.334133413341334,0.008635009461502436
1.3351335133513351,0.00860314694877836
1.3361336133613362,0.008570944730606225
1.3371337133713372,0.00853840407852876
1.338133813381338,0.008505526277452165
1.3391339133913391,0.008472312625595354
1.3401340134013402,0.008438764434438703
1.341134113411341,0.0084048830286723
1.342134213421342,0.008370669746143564
1.3431343134313432,0.008336125937804494
1.3441344134413442,0.008301252967658289
1.345134513451345,0.008266052212705474
1.346134613461346,0.008230525062889548
1.3471347134713472,0.008194672921042112
1.3481348134813482,0.008158497202827457
1.349134913491349,0.008121999336686675
1.3501350135013501,0.008085180763781239
1.3511351135113512,0.008048042937936097
1.3521352135213522,0.008010587325582309
1.353135313531353,0.007972815405699106
1.3541354135413541,0.007934728669755463
1.3551355135513552,0.00789632862165129
1.356135613561356,0.007857616777657958
1.357135713571357,0.007818594666358475
1.3581358135813582,0.007779263828587138
1.3591359135913592,0.007739625817368665
1.36013601360136,0.007699682197856895
1.361136113611361,0.007659434547272948
1.3621362136213622,0.007618884454842969
1.3631363136313632,0.007578033521735404
1.364136413641364,0.007536883360997746
1.3651365136513651,0.007495435597492815
1.3661366136613662,0.007453691867834671
1.3671367136713672,0.007411653820323906
1.368136813681368,0.007369323114882642
1.3691369136913691,0.007326701422988904
1.3701370137013702,0.007283790427610695
1.371137113711371,0.007240591823139522
1.372137213721372,0.007197107315323403
1.3731373137313732,0.007153338621199665
1.3741374137413742,0.00710928746902704
1.375137513751375,0.0070649555982174655
1.376137613761376,0.0070203447592673595
1.3771377137713772,0.00697545671368853
1.3781378137813782,0.006930293233938639
1.379137913791379,0.006884856103351198
1.3801380138013801,0.006839147116065102
1.3811381138113812,0.006793168076953887
1.3821382138213822,0.006746920801554348
1.383138313831383,0.006700407115994963
1.3841384138413841,0.006653628856923678
1.3851385138513852,0.0066065878714354756
1.386138613861386,0.006559286016999403
1.387138713871387,0.0065117251613852
1.3881388138813882,0.006463907182589577
1.3891389138913892,0.00641583396876208
1.39013901390139,0.006367507418130517
1.3911391139113911,0.006318929438925956
1.3921392139213922,0.006270101949307478
1.3931393139313932,0.00622102687728632
1.394139413941394,0.006171706160649858
1.3951395139513951,0.006122141746884986
1.3961396139613962,0.006072335593101306
1.3971397139713972,0.00602228966595381
1.398139813981398,0.005972005941565201
1.3991399139913991,0.005921486405447882
1.4001400140014002,0.005870733052425597
1.401140114011401,0.005819747886554624
1.402140214021402,0.005768532921044601
1.4031403140314032,0.005717090178179135
1.4041404140414042,0.005665421689235838
1.405140514051405,0.005613529494406227
1.4061406140614061,0.005561415642715054
1.4071407140714072,0.005509082191939499
1.4081408140814082,0.005456531208527872
1.409140914091409,0.005403764767517987
1.4101410141014101,0.005350784952455257
1.4111411141114112,0.00529759385531045
1.4121412141214122,0.005244193576397045
1.413141314131413,0.005190586224288324
1.4141414141414141,0.005136773915734072
1.4151415141514152,0.005082758775577018
1.416141614161416,0.005028542936668984
1.417141714171417,0.004974128539786562
1.4181418141814182,0.0049195177335466835
1.4191419141914192,0.004864712674321737
1.42014201420142,0.004809715526154389
1.4211421142114211,0.004754528460672167
1.4221422142214222,0.004699153657001736
1.4231423142314232,0.0046435933016828156
1.424142414241424,0.004587849588581863
1.4251425142514251,0.0045319247188054055
1.4261426142614262,0.004475820900613156
1.4271427142714272,0.0044195403493308485
1.428142814281428,0.0043630852872627345
1.4291429142914291,0.004306457943603779
1.4301430143014302,0.004249660554351757
1.431143114311431,0.004192695362218846
1.432143214321432,0.004135564616543118
1.4331433143314332,0.004078270573199757
1.4341434143414342,0.004020815494511932
1.435143514351435,0.0039632016491614975
1.4361436143614361,0.003905431312099368
1.4371437143714372,0.0038475067644557176
1.4381438143814382,0.0037894302934499396
1.439143914391439,0.0037312041923003025
1.4401440144014401,0.003672830760133349
1.4411441144114412,0.0036143123018932267
1.4421442144214422,0.0035556511282505425
1.443144314431443,0.0034968495555112596
1.4441444144414441,0.003437909905525096
1.4451445144514452,0.0033788345055939645
1.446144614461446,0.003319625688380026
1.447144714471447,0.003260285791813546
1.4481448144814482,0.0032008171590006147
1.4491449144914492,0.0031412221381306583
1.45014501450145,0.003081503082383686
1.4511451145114511,0.0030216623498373197
1.4521452145214522,0.002961702303373802
1.4531453145314532,0.0029016253105865575
1.454145414541454,0.002841433743686845
1.4551455145514551,0.0027811299794099496
1.4561456145614562,0.0027207163989214525
1.4571457145714573,0.0026601953877231584
1.458145814581458,0.0025995693355588675
1.4591459145914591,0.0025388406363200467
1.4601460146014602,0.0024780116879513374
1.461146114611461,0.002417084892355838
1.462146214621462,0.0023560626553002085
1.4631463146314632,0.0022949473863197976
1.4641464146414642,0.002233741498623359
1.465146514651465,0.002172447408997905
1.4661466146614661,0.0021110675377131343
1.4671467146714672,0.002049604308425989
1.4681468146814682,0.001988060148084901
1.469146914691469,0.0019264374868339256
1.4701470147014701,0.0018647387579168193
1.4711471147114712,0.0018029663975809957
1.4721472147214723,0.0017411228449812747
1.473147314731473,0.0016792105420836215
1.4741474147414741,0.0016172319335685842
1.4751475147514752,0.0015551894667349708
1.476147614761476,0.0014930855914030944
1.477147714771477,0.0014309227598180013
1.4781478147814782,0.0013687034265527668
1.4791479147914792,0.0013064300484114306
1.48014801480148,0.0012441050843321295
1.4811481148114811,0.0011817309952898616
1.4821482148214822,0.0011193102441994349
1.4831483148314832,0.0010568452958181636
1.484148414841484,0.0009943386166485096
1.4851485148514851,0.000931792674840724
1.4861486148614862,0.0008692099400954248
1.4871487148714873,0.0008065928835660255
1.488148814881488,0.0007439439777611934
1.4891489148914892,0.0006812656964471666
1.4901490149014902,0.0006185605145501101
1.491149114911491,0.0005558309080584435
1.492149214921492,0.0004930793539249497
1.4931493149314932,0.0004303083299690929
1.4941494149414942,0.0003675203147791269
1.495149514951495,0.0003047177876141886
1.4961496149614961,0.00024190322830643763
1.4971497149714972,0.00017907911716317254
1.4981498149814982,0.00011624793486883955
1.499149914991499,5.341216238711549e-05
1.5001500150015001,0.18393029486658408
1.5011501150115012,0.3893281283072268
1.5021502150215023,0.49986490211558493
1.503150315031503,0.389202464329848
1.5041504150415042,0.18367897187381757
1.5051505150515052,-0.0003235599219810644
1.506150615061506,-0.0003863583559117104
1.507150715071507,-0.0004491415340250334
1.5081508150815082,-0.0005119069772528585
1.5091509150915092,-0.0005746522072273115
1.51015101510151,-0.000637374746378645
1.5111511151115111,-0.0007000721180331205
1.5121512151215122,-0.0007627418465107685
1.5131513151315132,-0.0008253814572231076
1.514151415141514,-0.0008879884767708915
1.5151515151515151,-0.0009505604330418284
1.5161516151615162,-0.0010130948553080704
1.5171517151715173,-0.001075589274323915
1.518151815181518,-0.0011380412224231647
1.5191519151915192,-0.0012004482336167074
1.5201520152015202,-0.0012628078436897647
1.521152115211521,-0.0013251175902992474
1.522152215221522,-0.00138737501307102
1.5231523152315232,-0.0014495776536970156
1.5241524152415242,-0.0015117230560322695
1.525152515251525,-0.001573808766191939
1.5261526152615261,-0.001635832332648251
1.5271527152715272,-0.0016977913063271788
1.5281528152815282,-0.0017596832407052892
1.529152915291529,-0.0018215056919062046
1.5301530153015301,-0.0018832562187972427
1.5311531153115312,-0.0019449323830856861
1.5321532153215323,-0.0020065317494151118
1.533153315331533,-0.0020680518854615916
1.5341534153415342,-0.002129490362029697
1.5351535153515352,-0.0021908447531483874
1.536153615361536,-0.0022521126361668355
1.537153715371537,-0.00231329159185014
1.5381538153815382,-0.002374379204474732
1.5391539153915392,-0.0024353730619239016
1.54015401540154,-0.0024962707557829025
1.5411541154115411,-0.002557069881434192
1.5421542154215422,-0.002617768038152256
1.5431543154315432,-0.0026783628291984613
1.544154415441544,-0.0027388518619157233
1.5451545154515451,-0.0027992327478229494
1.5461546154615462,-0.00285950310270932
1.5471547154715473,-0.0029196605467284786
1.548154815481548,-0.002979702704492473
1.5491549154915492,-0.003039627205165598
1.5501550155015502,-0.0030994316825579786
1.5511551155115513,-0.003159113775218967
1.5521552155215521,-0.0032186711265304213
1.5531553155315532,-0.0032781013847998117
1.5541554155415542,-0.003337402203352958
1.555155515551555,-0.0033965712406268116
1.5561556155615561,-0.0034556061602618662
1.5571557155715572,-0.0035145046311943723
1.5581558155815582,-0.0035732643277484382
1.559155915591559,-0.0036318829297278254
1.5601560156015601,-0.003690358122507615
1.5611561156115612,-0.003748687597125571
1.5621562156215623,-0.0038068690503732768
1.563156315631563,-0.003864900184887116
1.5641564156415642,-0.0039227787092390365
1.5651565156515652,-0.003980502338026911
1.5661566156615663,-0.004038068791964913
1.5671567156715671,-0.0040954757979733865
1.5681568156815682,-0.004152721089268731
1.5691569156915692,-0.004209802405452794
1.57015701570157,-0.004266717492602175
1.5711571157115711,-0.004323464103357255
1.5721572157215722,-0.004380039997010906
1.5731573157315732,-0.004436442939596934
1.574157415741574,-0.004492670703978325
1.5751575157515751,-0.004548721069935228
1.5761576157615762,-0.004604591824252519
1.5771577157715773,-0.004660280760807314
1.578157815781578,-0.004715785680655955
1.5791579157915792,-0.004771104392120966
1.5801580158015802,-0.0048262347108774814
1.5811581158115813,-0.004881174460039546
1.5821582158215821,-0.0049359214702461
1.5831583158315832,-0.0049904735797466114
1.5841584158415842,-0.005044828634486401
1.585158515851585,-0.0050989844881917335
1.5861586158615861,-0.00515293900245459
1.5871587158715872,-0.005206690046817076
1.5881588158815882,-0.005260235498855523
1.589158915891589,-0.005313573244264314
1.5901590159015901,-0.00536670117693942
1.5911591159115912,-0.005419617199061457
1.5921592159215923,-0.005472319221178642
1.593159315931593,-0.005524805162289172
1.5941594159415942,-0.0055770729499235215
1.5951595159515952,-0.005629120520226167
1.5961596159615963,-0.005680945818037129
1.5971597159715971,-0.005732546796973147
1.5981598159815982,-0.005783921419508461
1.5991599159915992,-0.005835067657055227
1.6001600160016,-0.00588598349004366
1.6011601160116011,-0.0059366669080018085
1.6021602160216022,-0.00598711590963485
1.6031603160316032,-0.006037328502904226
1.604160416041604,-0.006087302705106181
1.6051605160516051,-0.0061370365429501755
1.6061606160616062,-0.006186528052636694
1.6071607160716073,-0.00623577527993484
1.608160816081608,-0.006284776280259522
1.6091609160916092,-0.00633352911874821
1.6101610161016102,-0.006382031870337316
1.6111611161116113,-0.006430282619838237
1.6121612161216121,-0.00647827946201296
1.6131613161316132,-0.0065260205016493345
1.6141614161416142,-0.006573503853635871
1.615161516151615,-0.006620727643036143
1.6161616161616161,-0.006667690005162913
1.6171617161716172,-0.0067143890856516735
1.6181618161816183,-0.006760823040533897
1.619161916191619,-0.006806990036309889
1.6201620162016201,-0.006852888250021147
1.6211621162116212,-0.006898515869322318
1.6221622162216223,-0.006943871092552809
1.623162316231623,-0.006988952128807893
1.6241624162416242,-0.007033757198009465
1.6251625162516252,-0.007078284530976305
1.6261626162616263,-0.007122532369493918
1.6271627162716271,-0.00716649896638397
1.6281628162816282,-0.007210182585573329
1.6291629162916292,-0.007253581502162523
1.63016301630163,-0.007296694002493932
1.6311631163116311,-0.007339518384219427
1.6321632163216322,-0.007382052956367555
1.6331633163316333,-0.007424296039410349
1.634163416341634,-0.007466245965329625
1.6351635163516351,-0.007507901077682882
1.6361636163616362,-0.007549259731668674
1.6371637163716373,-0.007590320294191548
1.638163816381638,-0.007631081143926543
1.6391639163916392,-0.007671540671383246
1.6401640164016402,-0.007711697278969268
1.6411641164116413,-0.007751549381053414
1.6421642164216421,-0.007791095404028201
1.6431643164316432,-0.007830333786372094
1.6441644164416442,-0.007869262978711076
1.645164516451645,-0.00790788144387986
1.6461646164616461,-0.007946187656982618
1.6471647164716472,-0.007984180105453157
1.6481648164816483,-0.008021857289114639
1.649164916491649,-0.008059217720238822
1.6501650165016502,-0.008096259923604854
1.6511651165116512,-0.008132982436557433
1.6521652165216523,-0.008169383809064656
1.653165316531653,-0.008205462603775191
1.6541654165416542,-0.008241217396075114
1.6551655165516552,-0.008276646774144086
1.6561656165616563,-0.008311749339011137
1.6571657165716571,-0.008346523704609922
1.6581658165816582,-0.008380968497833435
1.6591659165916592,-0.008415082358588202
1.66016601660166,-0.008448863939848015
1.6611661166116611,-0.00848231190770714
1.6621662166216622,-0.008515424941432925
1.6631663166316633,-0.008548201733518031
1.664166416641664,-0.00858064098973198
1.6651665166516652,-0.008612741429172328
1.6661666166616662,-0.008644501784315192
1.6671667166716673,-0.008675920801065322
1.668166816681668,-0.008706997238805629
1.6691669166916692,-0.00873772987044617
1.6701670167016702,-0.008768117482472568
1.6711671167116713,-0.00879815887499397
1.6721672167216721,-0.008827852861790398
1.6731673167316732,-0.008857198270359617
1.6741674167416742,-0.008886193941963416
1.675167516751675,-0.008914838731673343
1.6761676167616761,-0.008943131508415955
1.6771677167716772,-0.008971071155017447
1.6781678167816783,-0.008998656568247766
1.679167916791679,-0.009025886658864203
1.6801680168016802,-0.009052760351654383
1.6811681168116812,-0.009079276585478703
1.6821682168216823,-0.009105434313312262
1.683168316831683,-0.00913123250228618
1.6841684168416842,-0.009156670133728432
1.6851685168516852,-0.009181746203203996
1.6861686168616863,-0.009206459720554562
1.6871687168716871,-0.00923080970993762
1.6881688168816882,-0.009254795209865002
1.6891689168916892,-0.009278415273240836
1.69016901690169,-0.009301668967398929
1.6911691169116911,-0.009324555374139636
1.6921692169216922,-0.009347073589766068
1.6931693169316933,-0.009369222725119804
1.694169416941694,-0.009391001905616002
1.6951695169516952,-0.009412410271277928
1.6961696169616962,-0.009433446976770898
1.6971697169716973,-0.009454111191435681
1.698169816981698,-0.009474402099321272
1.6991699169916992,-0.009494318899217145
1.7001700170017002,-0.009513860804684873
1.7011701170117013,-0.00953302704408916
1.7021702170217021,-0.009551816860628339
1.7031703170317032,-0.009570229512364253
1.7041704170417042,-0.00958826427225153
1.705170517051705,-0.009605920428166317
1.7061706170617061,-0.009623197282934388
1.7071707170717072,-0.009640094154358663
1.7081708170817083,-0.009656610375246158
1.709170917091709,-0.009672745293434324
1.7101710171017102,-0.009688498271816807
1.7111711171117112,-0.009703868688368603
1.7121712171217123,-0.009718855936170598
1.7131713171317131,-0.009733459423433557
1.7141714171417142,-0.009747678573521499
1.7151715171517152,-0.009761512824974426
1.7161716171617163,-0.009774961631530545
1.7171717171717171,-0.009788024462147786
1.7181718171817182,-0.00980070080102482
1.7191719171917192,-0.009812990147621386
1.72017201720172,-0.009824892016678072
1.7211721172117211,-0.009836405938235484
1.7221722172217222,-0.009847531457652796
1.7231723172317233,-0.009858268135625686
1.724172417241724,-0.00986861554820371
1.7251725172517252,-0.009878573286807028
1.7261726172617262,-0.00988814095824253
1.7271727172717273,-0.009897318184719383
1.7281728172817281,-0.009906104603863921
1.7291729172917292,-0.009914499868733984
1.7301730173017302,-0.009922503647832589
1.7311731173117313,-0.00993011562512104
1.7321732173217321,-0.009937335500031393
1.7331733173317332,-0.009944162987478342
1.7341734173417342,-0.009950597817870452
1.735173517351735,-0.009956639737120822
1.7361736173617361,-0.00996228850665712
1.7371737173717372,-0.009967543903430983
1.7381738173817383,-0.009972405719926847
1.739173917391739,-0.009976873764170127
1.7401740174017402,-0.009980947859734808
1.7411741174117412,-0.009984627845750396
1.7421742174217423,-0.009987913576908283
1.7431743174317431,-0.009990804923467487
1.7441744174417442,-0.00999330177125976
1.7451745174517452,-0.009995404021694113
1.7461746174617463,-0.009997111591760695
1.7471747174717471,-0.009998424414034078
1.7481748174817482,-0.00999934243667592
1.7491749174917492,-0.009999865623437014
1.75017501750175,-0.009999993953658705
1.7511751175117511,-0.009999727422273728
1.7521752175217522,-0.009999066039806387
1.7531753175317533,-0.00999800983237215
1.754175417541754,-0.009996558841676623
1.7551755175517552,-0.00999471312501389
1.7561756175617562,-0.009992472755264261
1.7571757175717573,-0.009989837820891386
1.7581758175817581,-0.009986808425938775
1.7591759175917592,-0.009983384690025673
1.7601760176017602,-0.009979566748342349
1.7611761176117613,-0.009975354751644752
1.7621762176217621,-0.00997074886624856
1.7631763176317632,-0.009965749274022618
1.7641764176417642,-0.009960356172381744
1.765176517651765,-0.009954569774278946
1.7661766176617661,-0.009948390308197006
1.7671767176717672,-0.00994181801813946
1.7681768176817683,-0.00993485316362097
1.769176917691769,-0.009927496019657067
1.7701770177017702,-0.009919746876753295
1.7711771177117712,-0.009911606040893736
1.7721772177217723,-0.009903073833528942
1.7731773177317731,-0.009894150591563228
1.7741774177417742,-0.009884836667341369
1.7751775177517752,-0.009875132428634699
1.7761776177617763,-0.009865038258626576
1.7771777177717771,-0.009854554555897264
1.7781778177817782,-0.009843681734408175
1.7791779177917793,-0.009832420223485553
1.78017801780178,-0.009820770467803495
1.7811781178117811,-0.009808732927366405
1.7821782178217822,-0.009796308077490818
1.7831783178317833,-0.009783496408786655
1.784178417841784,-0.009770298427137836
1.7851785178517852,-0.009756714653682289
1.7861786178617862,-0.009742745624791408
1.7871787178717873,-0.009728391892048842
1.7881788178817881,-0.009713654022228733
1.7891789178917892,-0.009698532597273324
1.7901790179017902,-0.009683028214269994
1.7911791179117913,-0.009667141485427674
1.7921792179217921,-0.009650873038052671
1.7931793179317932,-0.009634223514523893
1.7941794179417943,-0.009617193572267504
1.795179517951795,-0.009599783883730948
1.7961796179617961,-0.009581995136356401
1.7971797179717972,-0.009563828032553616
1.7981798179817983,-0.009545283289672208
1.799179917991799,-0.00952636163997333
1.8001800180018002,-0.009507063830600716
1.8011801180118012,-0.009487390623551242
1.8021802180218023,-0.00946734279564478
1.8031803180318031,-0.009446921138493575
1.8041804180418042,-0.009426126458470938
1.8051805180518052,-0.009404959576679446
1.8061806180618063,-0.00938342132891851
1.8071807180718071,-0.009361512565651344
1.8081808180818082,-0.009339234151971415
1.8091809180918093,-0.009316586967568282
1.81018101810181,-0.009293571906692855
1.8111811181118112,-0.00927018987812206
1.8121812181218122,-0.009246441805123008
1.8131813181318133,-0.009222328625416476
1.814181418141814,-0.009197851291139942
1.8151815181518152,-0.009173010768809931
1.8161816181618162,-0.009147808039283901
1.8171817181718173,-0.009122244097721484
1.8181818181818181,-0.00909631995354519
1.8191819181918192,-0.009070036630400551
1.8201820182018202,-0.009043395166115723
1.8211821182118213,-0.00901639661266048
1.8221822182218221,-0.008989042036104697
1.8231823182318232,-0.008961332516576222
1.8241824182418243,-0.008933269148218249
1.825182518251825,-0.008904853039146135
1.8261826182618262,-0.008876085311403593
1.8271827182718272,-0.008846967100918436
1.8281828182818283,-0.008817499557457703
1.829182918291829,-0.008787683844582249
1.8301830183018302,-0.008757521139600804
1.8311831183118312,-0.00872701263352351
1.8321832183218323,-0.008696159531014873
1.8331833183318331,-0.008664963050346195
1.8341834183418342,-0.008633424423347465
1.8351835183518352,-0.008601544895358719
1.8361836183618363,-0.008569325725180888
1.8371837183718371,-0.008536768185026085
1.8381838183818382,-0.008503873560467327
1.8391839183918393,-0.00847064315038785
1.84018401840184,-0.008437078266929748
1.8411841184118412,-0.008403180235442195
1.8421842184218422,-0.008368950394429128
1.8431843184318433,-0.008334390095496365
1.844184418441844,-0.008299500703298258
1.8451845184518452,-0.008264283595483774
1.8461846184618462,-0.008228740162642124
1.8471847184718473,-0.008192871808247865
1.8481848184818481,-0.00815667994860547
1.8491849184918492,-0.008120166012793363
1.8501850185018502,-0.008083331442607578
1.8511851185118513,-0.008046177692504725
1.8521852185218521,-0.008008706229544662
1.8531853185318532,-0.007970918533332465
1.8541854185418543,-0.007932816095960095
1.855185518551855,-0.007894400421947435
1.8561856185618562,-0.007855673028182865
1.8571857185718572,-0.007816635443863393
1.8581858185818583,-0.00777728921043429
1.859185918591859,-0.0077376358815282
1.8601860186018602,-0.007697677022903763
1.8611861186118612,-0.007657414212383868
1.8621862186218623,-0.007616849039793257
1.8631863186318631,-0.007575983106895846
1.8641864186418642,-0.00753481802733138
1.8651865186518652,-0.007493355426551797
1.8661866186618663,-0.007451596941757015
1.8671867186718671,-0.00740954422183026
1.8681868186818682,-0.007367198927272979
1.8691869186918693,-0.0073245627301393
1.87018701870187,-0.007281637313969983
1.8711871187118712,-0.007238424373725907
1.8721872187218722,-0.0071949256157212305
1.8731873187318733,-0.007151142757555915
1.8741874187418741,-0.007107077528048003
1.8751875187518752,-0.007062731667165252
1.8761876187618762,-0.007018106925956522
1.8771877187718773,-0.006973205066482593
1.8781878187818781,-0.006928027861746561
1.8791879187918792,-0.006882577095623855
1.8801880188018802,-0.00683685456279183
1.8811881188118813,-0.006790862068658852
1.8821882188218821,-0.006744601429293046
1.8831883188318832,-0.006698074471350541
1.8841884188418843,-0.006651283032003375
1.885188518851885,-0.006604228958866979
1.8861886188618862,-0.006556914109927143
1.8871887188718872,-0.006509340353466739
1.8881888188818883,-0.006461509567991906
1.8891889188918891,-0.006413423642157852
1.8901890189018902,-0.006365084474694305
1.8911891189118912,-0.006316493974330567
1.8921892189218923,-0.0062676540597201005
1.8931893189318931,-0.006218566659364816
1.8941894189418942,-0.006169233711538805
1.8951895189518952,-0.0061196571642119805
1.8961896189618963,-0.0060698389749730365
1.8971897189718971,-0.0060197811109522015
1.8981898189818982,-0.0059694855487435194
1.8991899189918993,-0.005918954274326824
1.9001900190019,-0.005868189282989374
1.9011901190119012,-0.005817192579246955
1.9021902190219022,-0.005765966176764835
1.9031903190319033,-0.005714512098278214
1.9041904190419041,-0.0056628323755123135
1.9051905190519052,-0.005610929049102189
1.9061906190619062,-0.00555880416851218
1.9071907190719073,-0.0055064597919549435
1.9081908190819081,-0.005453897986310202
1.9091909190919092,-0.005401120827043102
1.9101910191019102,-0.005348130398122279
1.9111911191119113,-0.005294928791937601
1.9121912191219121,-0.005241518109217524
1.9131913191319132,-0.005187900458946092
1.9141914191419143,-0.005134077958279769
1.915191519151915,-0.005080052732463734
1.9161916191619162,-0.005025826914748006
1.9171917191719172,-0.004971402646303248
1.9181918191819183,-0.004916782076136166
1.9191919191919191,-0.00486196736100469
1.9201920192019202,-0.00480696066533276
1.9211921192119212,-0.004751764161124899
1.9221922192219223,-0.004696380027880472
1.9231923192319231,-0.004640810452507602
1.9241924192419242,-0.004585057629236764
1.9251925192519252,-0.00452912375953426
1.9261926192619263,-0.004473011052015158
1.9271927192719271,-0.004416721722356214
1.9281928192819282,-0.004360257993208256
1.9291929192919293,-0.004303622094108528
1.93019301930193,-0.00424681626139261
1.9311931193119312,-0.00418984273810608
1.9321932193219322,-0.004132703773915975
1.9331933193319333,-0.004075401625021997
1.9341934193419341,-0.004017938554067387
1.9351935193519352,-0.003960316830049538
1.9361936193619362,-0.003902538728230509
1.9371937193719373,-0.00384460653004706
1.9381938193819381,-0.003786522523020691
1.9391939193919392,-0.00372828900066719
1.9401940194019403,-0.0036699082624061835
1.9411941194119413,-0.0036113826134702926
1.9421942194219421,-0.0035527143648140754
1.9431943194319432,-0.0034939058330228073
1.9441944194419443,-0.0034349593402210454
1.945194519451945,-0.0033758772139808983
1.9461946194619462,-0.0033166617872300735
1.9471947194719472,-0.003257315398159871
1.9481948194819483,-0.0031978403901327303
1.9491949194919491,-0.0031382391115898256
1.9501950195019502,-0.0030785139159582083
1.9511951195119512,-0.00301866716155799
1.9521952195219523,-0.002958701211509177
1.9531953195319531,-0.002898618433638323
1.9541954195419542,-0.002838421200385065
1.9551955195519553,-0.002778111888708481
1.9561956195619563,-0.0027176928799931815
1.9571957195719571,-0.002657166559955312
1.9581958195819582,-0.0025965353185482976
1.9591959195919593,-0.0025358015498685082
1.96019601960196,-0.002474967652060777
1.9611961196119612,-0.0024140360272235845
1.9621962196219622,-0.00235300908131433
1.9631963196319633,-0.0022918892240542795
1.9641964196419641,-0.0022306788688333788
1.9651965196519652,-0.0021693804326149923
1.9661966196619662,-0.0021079963358405025
1.9671967196719673,-0.002046529002333682
1.9681968196819681,-0.0019849808592050226
1.9691969196919692,-0.0019233543367558447
1.9701970197019703,-0.0018616518683823688
1.9711971197119713,-0.0017998758904796655
1.9721972197219722,-0.001738028842345416
1.9731973197319732,-0.001676113166083541
1.9741974197419743,-0.0016141313065078948
1.975197519751975,-0.0015520857110456047
1.9761976197619762,-0.0014899788296404862
1.9771977197719772,-0.0014278131146563372
1.9781978197819783,-0.0013655910207800515
1.9791979197919791,-0.0013033150049247286
1.9801980198019802,-0.0012409875261326048
1.9811981198119812,-0.0011786110454779922
1.9821982198219823,-0.0011161880259701353
1.9831983198319831,-0.001053720932455919
1.9841984198419842,-0.0009912122315224906
1.9851985198519853,-0.000928664391399986
1.9861986198619863,-0.0008660798818639274
1.9871987198719872,-0.0008034611741378432
1.9881988198819882,-0.0007408107407955473
1.9891989198919893,-0.0006781310556636297
1.99019901990199,-0.0006154245937237224
1.9911991199119912,-0.0005526938310147357
1.9921992199219922,-0.0004899412445351246
1.9931993199319933,-0.00042716931214511724
1.9941994199419941,-0.00036438051246883763
1.9951995199519952,-0.0003015773247963815
1.9961996199619962,-0.0002387622289860426
1.9971997199719973,-0.00017593770536625058
1.9981998199819981,-0.0001131062346377744
1.9991999199919992,-5.027029777562671e-05
2.000200020002,1.2567624068758168e-05
2.001200120012001,7.54050496656198e-05
2.002200220022002,0.00013823949780479276
2.003200320032003,0.00020106848739364437
2.0042004200420043,0.00026388953755509723
2.0052005200520053,0.0003267001677255715
2.0062006200620064,0.00038949789775291545
2.007200720072007,0.0004522802479943723
2.008200820082008,0.0005150447394145277
2.009200920092009,0.0005777888936830554
2.01020102010201,0.0006405102332727009
2.0112011201120112,0.0007032062815570567
2.0122012201220123,0.0007658745629084255
2.0132013201320134,0.0008285126027954677
2.0142014201420144,0.0008911179278809806
2.015201520152015,0.0009536880661195093
2.016201620162016,0.0010162205468550994
2.017201720172017,0.0010787129009186232
2.018201820182018,0.0011411626607254917
2.0192019201920193,0.0012035673603729463
2.0202020202020203,0.0012659245357375007
2.0212021202120214,0.0013282317245722037
2.022202220222022,0.0013904864666039157
2.023202320232023,0.0014526863036304044
2.024202420242024,0.0015148287796174446
2.025202520252025,0.001576911440795743
2.0262026202620262,0.0016389318357578845
2.0272027202720273,0.00170088751555509
2.0282028202820284,0.001762776033793989
2.0292029202920294,0.0018245949467331122
2.03020302030203,0.001886341813379419
2.031203120312031,0.001948014195584809
2.032203220322032,0.002009609658142182
2.033203320332033,0.0020711257688817196
2.0342034203420343,0.002132560098766955
2.0352035203520353,0.0021939102219905838
2.0362036203620364,0.002255173716070319
2.037203720372037,0.0023163481619444927
2.038203820382038,0.002377431144067716
2.039203920392039,0.0024384202505060315
2.04020402040204,0.0024993130730323622
2.0412041204120412,0.0025601072072214638
2.0422042204220423,0.002620800252544934
2.0432043204320434,0.002681389812465968
2.0442044204420444,0.002741873494534055
2.045204520452045,0.0028022489104793133
2.046204620462046,0.0028625136763069936
2.047204720472047,0.002922665412391398
2.048204820482048,0.0029827017435699755
2.0492049204920493,0.0030426202992370555
2.0502050205020503,0.003102418713437526
2.0512051205120514,0.0031620946249601525
2.052205220522052,0.0032216456774308445
2.053205320532053,0.003281069519405823
2.054205420542054,0.003340363804464264
2.055205520552055,0.0033995261913010687
2.0562056205620562,0.003458554343819346
2.0572057205720573,0.0035174459312225545
2.0582058205820584,0.0035761986281066067
2.0592059205920594,0.0036348101145516555
2.06020602060206,0.0036932780762137457
2.061206120612061,0.0037516002044161553
2.062206220622062,0.0038097741962405825
2.063206320632063,0.0038677977546180344
2.0642064206420643,0.003925668588419577
2.0652065206520653,0.003983384412546771
2.0662066206620664,0.004040942948021965
2.067206720672067,0.0040983419220781605
2.068206820682068,0.004155579068248936
2.069206920692069,0.004212652126457745
2.07020702070207,0.004269558843107279
2.0712071207120712,0.0043262969711684056
2.0722072207220723,0.004382864270268961
2.0732073207320734,0.00443925850678212
2.0742074207420744,0.004495477453914651
2.075207520752075,0.004551518891794801
2.076207620762076,0.004607380607560076
2.077207720772077,0.004663060395444412
2.078207820782078,0.004718556056865458
2.0792079207920793,0.004773865400511272
2.0802080208020803,0.0048289862424269045
2.0812081208120814,0.004883916406100603
2.082208220822082,0.004938653722549803
2.083208320832083,0.004993196030406727
2.084208420842084,0.005047541176003755
2.085208520852085,0.005101687013458426
2.0862086208620862,0.005155631404758209
2.0872087208720873,0.005209372219844898
2.0882088208820884,0.005262907336698783
2.0892089208920894,0.005316234641422345
2.09020902090209,0.005369352028323757
2.091209120912091,0.00542225740000014
2.092209220922092,0.005474948667420193
2.093209320932093,0.005527423750006793
2.0942094209420943,0.005579680575719173
2.0952095209520953,0.005631717081134656
2.0962096209620964,0.005683531211530187
2.097209720972097,0.00573512092096342
2.098209820982098,0.005786484172353615
2.099209920992099,0.005837618937561945
2.1002100210021,0.005888523197471621
2.1012101210121013,0.005939194942067645
2.1022102210221023,0.005989632170516155
2.1032103210321034,0.006039832891243428
2.1042104210421044,0.006089795122014572
2.105210521052105,0.006139516890011676
2.106210621062106,0.006188996231911893
2.107210721072107,0.006238231193964767
2.108210821082108,0.006287219832069488
2.1092109210921093,0.00633596021185168
2.1102110211021103,0.006384450408739696
2.1112111211121114,0.006432688508040675
2.112211221122112,0.006480672605016098
2.113211321132113,0.0065284008049571116
2.114211421142114,0.006575871223259165
2.115211521152115,0.0066230819854965865
2.1162116211621163,0.006670031227496493
2.1172117211721173,0.006716717095412451
2.1182118211821184,0.006763137745797651
2.1192119211921194,0.0068092913456777515
2.12021202120212,0.0068551760726231524
2.121212121212121,0.00690079011482111
2.122212221222122,0.006946131671147108
2.1232123212321232,0.006991198951236087
2.1242124212421243,0.007035990175553098
2.1252125212521253,0.0070805035754636135
2.1262126212621264,0.007124737393303301
2.127212721272127,0.007168689882447439
2.128212821282128,0.00721235930737998
2.129212921292129,0.007255743943761927
2.13021302130213,0.007298842078499512
2.1312131213121313,0.007341652009811857
2.1322132213221323,0.007384172047298099
2.1332133213321334,0.007426400512004193
2.1342134213421344,0.0074683357364891765
2.135213521352135,0.00750997606489105
2.136213621362136,0.00755131985299212
2.137213721372137,0.007592365468283953
2.1382138213821382,0.007633111290031796
2.1392139213921393,0.0076735557093386125
2.1402140214021403,0.007713697129208586
2.1412141214121414,0.007753533964610228
2.142214221422142,0.00779306464253887
2.143214321432143,0.007832287602078913
2.144214421442144,0.007871201294465315
2.145214521452145,0.007909804183144837
2.1462146214621463,0.007948094743836684
2.1472147214721473,0.007986071464592733
2.1482148214821484,0.008023732845857164
2.1492149214921494,0.00806107740052573
2.15021502150215,0.008098103654004433
2.151215121512151,0.008134810144267837
2.152215221522152,0.008171195421916659
2.1532153215321532,0.008207258050235134
2.1542154215421543,0.008242996605247658
2.1552155215521553,0.008278409675775047
2.1562156215621564,0.008313495863490257
2.157215721572157,0.008348253782973615
2.158215821582158,0.008382682061767495
2.159215921592159,0.008416779340430539
2.16021602160216,0.0084505442725913
2.1612161216121613,0.008483975525001432
2.1622162216221623,0.008517071777588328
2.1632163216321634,0.008549831723507267
2.1642164216421644,0.00858225406919297
2.165216521652165,0.008614337534410694
2.166216621662166,0.008646080852306849
2.167216721672167,0.008677482769458905
2.1682168216821682,0.008708542045924958
2.1692169216921693,0.008739257455292705
2.1702170217021703,0.008769627784727814
2.1712171217121714,0.008799651835021852
2.172217221722172,0.008829328420639613
2.173217321732173,0.008858656369765992
2.174217421742174,0.008887634524352154
2.175217521752175,0.008916261740161356
2.1762176217621763,0.008944536886814063
2.1772177217721773,0.008972458847832612
2.1782178217821784,0.009000026520685298
2.1792179217921794,0.009027238816829916
2.18021802180218,0.009054094661756691
2.181218121812181,0.009080592995030811
2.182218221822182,0.009106732770334178
2.1832183218321832,0.009132512955506805
2.1842184218421843,0.00915793253258753
2.1852185218521853,0.009182990497854262
2.1862186218621864,0.009207685861863548
2.187218721872187,0.009232017649489678
2.188218821882188,0.009255984899963219
2.189218921892189,0.009279586666908882
2.19021902190219,0.00930282201838294
2.1912191219121913,0.009325690036910025
2.1922192219221923,0.009348189819519334
2.1932193219321934,0.0093703204777803
2.1942194219421944,0.009392081137837653
2.195219521952195,0.00941347094044597
2.196219621962196,0.009434489041003552
2.197219721972197,0.009455134609585811
2.1982198219821982,0.009475406830978006
2.1992199219921993,0.009495304904707465
2.2002200220022003,0.00951482804507517
2.2012201220122014,0.00953397548118681
2.202220222022202,0.009552746456983171
2.203220322032203,0.009571140231270061
2.204220422042204,0.009589156077747504
2.205220522052205,0.009606793285038462
2.2062206220622063,0.009624051156716905
2.2072207220722073,0.00964092901133534
2.2082208220822084,0.009657426182451679
2.2092209220922094,0.009673542018655577
2.21022102210221,0.009689275883594148
2.211221122112211,0.009704627155997105
2.212221222122212,0.009719595229701275
2.2132213221322132,0.009734179513674534
2.2142214221422143,0.009748379432039152
2.2152215221522153,0.009762194424094534
2.2162216221622164,0.009775623944339349
2.217221722172217,0.009788667462493081
2.218221822182218,0.00980132446351698
2.219221922192219,0.009813594447634359
2.22022202220222,0.009825476930350359
2.2212221222122213,0.009836971442471074
2.2222222222222223,0.00984807753012208
2.2232223222322234,0.00985879475476635
2.2242224222422244,0.009869122693221575
2.225222522252225,0.009879060937676862
2.226222622262226,0.009888609095708871
2.227222722272227,0.009897766790297264
2.2282228222822282,0.009906533659839624
2.2292229222922293,0.009914909358165722
2.2302230223022304,0.009922893554551188
2.2312231223122314,0.00993048593373057
2.232223222322232,0.00993768619590978
2.233223322332233,0.009944494056777942
2.234223422342234,0.009950909247518604
2.235223522352235,0.009956931514820362
2.2362236223622363,0.009962560620886853
2.2372237223722373,0.009967796343446158
2.2382238223822384,0.009972638475759573
2.2392239223922394,0.009977086826629764
2.24022402240224,0.009981141220408326
2.241224122412241,0.009984801497002727
2.242224222422242,0.0099880675118826
2.2432243224322432,0.009990939136085486
2.2442244224422443,0.009993416256221894
2.2452245224522454,0.009995498774479809
2.2462246224622464,0.009997186608628526
2.247224722472247,0.009998479692021915
2.248224822482248,0.009999377973601049
2.249224922492249,0.009999881417896213
2.25022502250225,0.009999990005028313
2.2512251225122513,0.009999703730709662
2.2522252225222523,0.009999022606244135
2.2532253225322534,0.009997946658526739
2.2542254225422544,0.009996475930042546
2.255225522552255,0.009994610478865013
2.256225622562256,0.009992350378653687
2.257225722572257,0.0099896957186513
2.2582258225822582,0.009986646603680253
2.2592259225922593,0.009983203154138458
2.2602260226022604,0.0099793655059946
2.2612261226122614,0.009975133810782764
2.262226222622262,0.009970508235596446
2.263226322632263,0.009965488963081961
2.264226422642264,0.009960076191431229
2.265226522652265,0.009954270134373954
2.2662266226622663,0.009948071021169172
2.2672267226722673,0.009941479096596213
2.2682268226822684,0.009934494620945028
2.2692269226922694,0.009927117870005912
2.27022702270227,0.009919349135058613
2.271227122712271,0.009911188722860835
2.272227222722272,0.009902636955636111
2.2732273227322732,0.00989369417106111
2.2742274227422743,0.009884360722252268
2.2752275227522754,0.009874636977751872
2.2762276227622764,0.009864523321513488
2.277227722772277,0.009854020152886818
2.278227822782278,0.009843127886601907
2.279227922792279,0.009831846952752797
2.28022802280228,0.009820177796780525
2.2812281228122813,0.009808120879455536
2.2822282228222823,0.009795676676859492
2.2832283228322834,0.009782845680366472
2.2842284228422844,0.009769628396623573
2.285228522852285,0.009756025347530908
2.286228622862286,0.009742037070220968
2.287228722872287,0.009727664117037465
2.2882288228822882,0.009712907055513472
2.2892289228922893,0.009697766468349047
2.2902290229022904,0.009682242953388208
2.2912291229122914,0.00966633712359534
2.292229222922292,0.009650049607030965
2.293229322932293,0.009633381046826968
2.294229422942294,0.00961633210116119
2.295229522952295,0.009598903443231452
2.2962296229622963,0.009581095761228954
2.2972297229722973,0.00956290975831112
2.2982298229822984,0.009544346152573808
2.2992299229922994,0.009525405677022985
2.3002300230023,0.009506089079545775
2.301230123012301,0.009486397122880888
2.302230223022302,0.009466330584588569
2.3032303230323032,0.009445890257019859
2.3042304230423043,0.009425076947285295
2.3052305230523054,0.009403891477223066
2.3062306230623064,0.009382334683366559
2.307230723072307,0.009360407416911323
2.308230823082308,0.00933811054368143
2.309230923092309,0.009315444944095332
2.31023102310231,0.00929241151313108
2.3112311231123113,0.009269011160290984
2.3122312231223123,0.009245244809565692
2.3132313231323134,0.009221113399397723
2.3142314231423144,0.009196617882644377
2.315231523152315,0.00917175922654017
2.316231623162316,0.009146538412658558
2.317231723172317,0.009120956436873265
2.3182318231823182,0.009095014309318914
2.3192319231923193,0.009068713054351127
2.3202320232023204,0.00904205371050612
2.3212321232123214,0.009015037330459663
2.322232223222322,0.00898766498098554
2.323232323232323,0.008959937742913362
2.324232423242324,0.008931856711085992
2.325232523252325,0.008903422994316219
2.3262326232623263,0.00887463771534304
2.3272327232723273,0.00884550201078729
2.3282328232823284,0.008816017031106784
2.3292329232923294,0.008786183940550859
2.33023302330233,0.008756003917114454
2.331233123312331,0.008725478152491513
2.332233223322332,0.008694607852028025
2.3332333233323332,0.008663394234674375
2.3342334233423343,0.008631838532937223
2.3352335233523354,0.008599941992830817
2.3362336233623364,0.008567705873827835
2.337233723372337,0.008535131448809635
2.338233823382338,0.008502220004015942
2.339233923392339,0.008468972838994154
2.34023402340234,0.008435391266547975
2.3412341234123413,0.008401476612685555
2.3422342234223423,0.00836723021656718
2.3432343234323434,0.008332653430452372
2.3442344234423445,0.008297747619646497
2.345234523452345,0.008262514162446829
2.346234623462346,0.008226954450088165
2.347234723472347,0.008191069886687856
2.3482348234823482,0.008154861889190406
2.3492349234923493,0.00811833188731149
2.3502350235023504,0.008081481323481507
2.3512351235123514,0.008044311652788605
2.352235223522352,0.00800682434292129
2.353235323532353,0.007969020874110354
2.354235423542354,0.007930902739070567
2.355235523552355,0.007892471442941642
2.3562356235623563,0.00785372850322884
2.3572357235723573,0.007814675449743007
2.3582358235823584,0.007775313824540231
2.3592359235923595,0.007735645181860909
2.36023602360236,0.00769567108806841
2.361236123612361,0.007655393121587131
2.362236223622362,0.007614812872840323
2.3632363236323632,0.007573931944187157
2.3642364236423643,0.0075327519498595355
2.3652365236523654,0.007491274515898313
2.3662366236623664,0.007449501280089115
2.367236723672367,0.007407433891897627
2.368236823682368,0.007365074012404502
2.369236923692369,0.007322423314239747
2.37023702370237,0.0072794834815167134
2.3712371237123713,0.007236256209765559
2.3722372237223723,0.007192743205866325
2.3732373237323734,0.007148946187981492
2.3742374237423745,0.007104866885488201
2.375237523752375,0.007060507038909949
2.376237623762376,0.0070158683998477744
2.377237723772377,0.006970952730911242
2.3782378237823782,0.0069257618056487585
2.3792379237923793,0.006880297408477512
2.3802380238023804,0.00683456133461309
2.3812381238123814,0.006788555389998549
2.382238223822382,0.00674228139123313
2.383238323832383,0.00669574116550044
2.384238423842384,0.006648936550496457
2.385238523852385,0.006601869394356822
2.3862386238623863,0.00655454155558396
2.3872387238723873,0.006506954902973646
2.3882388238823884,0.0064591113155412425
2.3892389238923895,0.006411012682447445
2.39023902390239,0.006362660902923795
2.391239123912391,0.006314057886197527
2.392239223922392,0.006265205551416359
2.3932393239323932,0.006216105827572593
2.3942394239423943,0.006166760653427003
2.3952395239523954,0.0061171719774322135
2.3962396239623964,0.006067341757655847
2.397239723972397,0.006017271961703189
2.398239823982398,0.005966964566639385
2.399239923992399,0.005916421558911548
2.4002400240024,0.0058656449342702225
2.4012401240124013,0.005814636697690552
2.4022402240224023,0.0057633988632931924
2.4032403240324034,0.00571193345426473
2.4042404240424045,0.005660242502777814
2.405240524052405,0.005608328049910884
2.406240624062406,0.005556192145567604
2.407240724072407,0.005503836848395899
2.4082408240824082,0.00545126422570671
2.4092409240924093,0.00539847635339232
2.4102410241024104,0.005345475315844409
2.4112411241124114,0.005292263205871698
2.412241224122412,0.005238842124617427
2.413241324132413,0.005185214181476208
2.414241424142414,0.005131381494010929
2.415241524152415,0.005077346187869024
2.4162416241624163,0.005023110396698578
2.4172417241724173,0.004968676262064017
2.4182418241824184,0.004914045933361645
2.4192419241924195,0.004859221567734702
2.42024202420242,0.004804205329988235
2.421242124212421,0.004748999392503516
2.422242224222422,0.004693605935152382
2.4232423242324233,0.004638027145211125
2.4242424242424243,0.004582265217274102
2.4252425242524254,0.00452632235316709
2.4262426242624264,0.004470200761860361
2.427242724272427,0.004413902659381426
2.428242824282428,0.004357430268727503
2.429242924292429,0.004300785819777859
2.43024302430243,0.004243971549205661
2.4312431243124313,0.004186989700389697
2.4322432243224323,0.004129842523325733
2.4332433243324334,0.004072532274537764
2.4342434243424345,0.00401506121698885
2.435243524352435,0.003957431619991808
2.436243624362436,0.003899645759119475
2.437243724372437,0.0038417059161150666
2.4382438243824383,0.0037836143788018816
2.4392439243924393,0.0037253734409931007
2.4402440244024404,0.0036669854024011417
2.4412441244124414,0.003608452568546888
2.442244224422442,0.0035497772506686014
2.443244324432443,0.0034909617656307137
2.444244424442444,0.003432008435832303
2.4452445244524452,0.003372919589115446
2.4462446244624463,0.0033136975586732483
2.4472447244724473,0.0032543446829577495
2.4482448244824484,0.00319486330558752
2.4492449244924495,0.0031352557752552207
2.45024502450245,0.003075524445634828
2.451245124512451,0.003015671675288578
2.452245224522452,0.0029556998275740392
2.4532453245324533,0.0028956112705506767
2.4542454245424543,0.0028354083768863067
2.4552455245524554,0.002775093523763515
2.4562456245624564,0.002714669092785724
2.457245724572457,0.0026541374698831987
2.458245824582458,0.002593501045218704
2.459245924592459,0.0025327622130933464
2.4602460246024602,0.0024719233718518245
2.4612461246124613,0.002410986923787868
2.4622462246224623,0.002349955275049312
2.4632463246324634,0.0022888308355431164
2.4642464246424645,0.002227616018840147
2.465246524652465,0.002166313242080004
2.466246624662466,0.002104924925875374
2.467246724672467,0.0020434534942166743
2.4682468246824683,0.001981901374376199
2.4692469246924693,0.0019202709968123297
2.4702470247024704,0.0018585647950734921
2.4712471247124714,0.0017967852057021734
2.472247224722472,0.0017349346681386749
2.473247324732473,0.0016730156246246679
2.474247424742474,0.0016110305201069654
2.4752475247524752,0.0015489818021408607
2.4762476247624763,0.0014868719207934474
2.4772477247724773,0.0014247033285469798
2.4782478247824784,0.0013624784802019638
2.4792479247924795,0.0013001998327802616
2.48024802480248,0.0012378698454280214
2.481248124812481,0.0011754909793186257
2.482248224822482,0.001113065697555476
2.4832483248324833,0.0010505964650747853
2.4842484248424843,0.0009880857485481955
2.4852485248524854,0.0009255360162854134
2.4862486248624864,0.0008629497381366742
2.487248724872487,0.0008003293853953603
2.488248824882488,0.0007376774307002048
2.489248924892489,0.0006749963479378884
2.4902490249024902,0.0006122886121452123
2.4912491249124913,0.000549556699411422
2.4922492249224923,0.00048680308678036475
2.4932493249324934,0.00042403025215278736
2.4942494249424945,0.0003612406741884222
2.495249524952495,0.00029843683220816746
2.496249624962496,0.0002356212060960466
2.497249724972497,0.00017279627620151765
2.4982498249824983,0.00010996452324132072
2.4992499249924993,4.7128428201666e-05
2.5002500250025004,0.18392401105796138
2.5012501250125014,0.3893218446722905
2.502250225022502,0.49985861890245187
2.503250325032503,0.38919618178661824
2.504250425042504,0.1836726902485647
2.5052505250525052,-0.0003298403812195796
2.5062506250625063,-0.00039263740114451186
2.5072507250725073,-0.00045541891731654686
2.5082508250825084,-0.0005181824507331865
2.5092509250925095,-0.0005809255231019503
2.51025102510251,-0.0006436456569382683
2.511251125112511,-0.0007063403756634323
2.512251225122512,-0.0007690072037021737
2.5132513251325133,-0.000831643666580538
2.5142514251425143,-0.0008942472910236282
2.5152515251525154,-0.0009568156050531591
2.5162516251625164,-0.0010193461380851366
2.517251725172517,-0.001081836421027358
2.518251825182518,-0.0011442839863770326
2.519251925192519,-0.0012066863683180705
2.5202520252025202,-0.0012690411028184847
2.5212521252125213,-0.001331345727727722
2.5222522252225223,-0.0013935977828738655
2.5232523252325234,-0.0014557948101607595
2.5242524252425245,-0.0015179343536651422
2.525252525252525,-0.0015800139597334786
2.526252625262526,-0.0016420311770790575
2.527252725272527,-0.0017039835568785546
2.5282528252825283,-0.0017658686528688513
2.5292529252925293,-0.0018276840214436615
2.5302530253025304,-0.0018894272217499172
2.5312531253125314,-0.0019510958157842164
2.532253225322532,-0.0020126873684890396
2.533253325332533,-0.002074199447849041
2.534253425342534,-0.0021356296249868505
2.5352535253525352,-0.0021969754742591926
2.5362536253625363,-0.002258234573352524
2.5372537253725373,-0.002319404503378753
2.5382538253825384,-0.0023804828489707177
2.5392539253925395,-0.002441467198377626
2.54025402540254,-0.002502355143560152
2.541254125412541,-0.002563144280285725
2.542254225422542,-0.00262383220822324
2.5432543254325433,-0.002684416531037973
2.5442544254425443,-0.002744894856486158
2.5452545254525454,-0.002805264796509509
2.5462546254625464,-0.002865523967329416
2.547254725472547,-0.0029256699895411067
2.548254825482548,-0.002985700488207698
2.549254925492549,-0.00304561309295386
2.5502550255025502,-0.0031054054380593565
2.5512551255125513,-0.003165075162552683
2.5522552255225524,-0.003224619910304018
2.5532553255325534,-0.0032840373301184973
2.5542554255425545,-0.0033433250758289515
2.555255525552555,-0.003402480806388411
2.556255625562556,-0.0034615021859629165
2.557255725572557,-0.0035203868840232816
2.5582558255825583,-0.003579132575437486
2.5592559255925593,-0.00363773694056235
2.5602560256025604,-0.003696197665335031
2.5612561256125614,-0.0037545124413646287
2.562256225622562,-0.0038126789660230366
2.563256325632563,-0.003870694942536259
2.564256425642564,-0.003928558080074643
2.5652565256525652,-0.003986266093843694
2.5662566256625663,-0.0040438167051741625
2.5672567256725674,-0.004101207641611925
2.5682568256825684,-0.004158436637007907
2.5692569256925695,-0.004215501431607467
2.57025702570257,-0.004272399772139497
2.571257125712571,-0.004329129411905753
2.572257225722572,-0.004385688110869113
2.5732573257325733,-0.004442073635742416
2.5742574257425743,-0.004498283760076357
2.5752575257525754,-0.004554316264347628
2.5762576257625764,-0.004610168936046454
2.577257725772577,-0.00466583956976384
2.578257825782578,-0.004721325967278994
2.579257925792579,-0.004776625937645691
2.5802580258025802,-0.004831737297279127
2.5812581258125813,-0.004886657870042016
2.5822582258225824,-0.004941385487330425
2.5832583258325834,-0.004995917988159619
2.5842584258425845,-0.005050253219249147
2.585258525852585,-0.005104389035108076
2.586258625862586,-0.005158323298119593
2.587258725872587,-0.005212053878625433
2.5882588258825883,-0.0052655786550100106
2.5892589258925893,-0.005318895513784067
2.5902590259025904,-0.005372002349668307
2.5912591259125914,-0.005424897065676439
2.592259225922592,-0.005477577573197856
2.593259325932593,-0.0055300417920804345
2.594259425942594,-0.005582287650712259
2.5952595259525952,-0.005634313086103769
2.5962596259625963,-0.005686116043968967
2.5972597259725974,-0.0057376944788067276
2.5982598259825984,-0.005789046353981481
2.5992599259925995,-0.005840169641803552
2.6002600260026,-0.005891062323609391
2.601260126012601,-0.005941722389841172
2.602260226022602,-0.005992147840126173
2.6032603260326033,-0.006042336683355785
2.6042604260426043,-0.006092286937764024
2.6052605260526054,-0.006141996631005987
2.6062606260626064,-0.006191463800235495
2.607260726072607,-0.006240686492182802
2.608260826082608,-0.006289662763231611
2.609260926092609,-0.006338390679495847
2.6102610261026102,-0.006386868316896041
2.6112611261126113,-0.006435093761235201
2.6122612261226124,-0.006483065108274563
2.6132613261326134,-0.00653078046380869
2.6142614261426145,-0.0065782379437401926
2.615261526152615,-0.0066254356741542895
2.616261626162616,-0.006672371791392687
2.617261726172617,-0.006719044442127224
2.6182618261826183,-0.00676545178343295
2.6192619261926193,-0.006811591982861045
2.6202620262026204,-0.006857463218511107
2.6212621262126214,-0.00690306367910301
2.622262226222622,-0.006948391564048575
2.623262326232623,-0.0069934450835225734
2.624262426242624,-0.007038222458533421
2.6252625262526252,-0.00708272192099345
2.6262626262626263,-0.007126941713788623
2.6272627262726274,-0.0071708800908480905
2.6282628262826284,-0.00721453531721294
2.6292629262926295,-0.007257905669104871
2.63026302630263,-0.007300989433994164
2.631263126312631,-0.00734378491066733
2.632263226322632,-0.007386290409294301
2.6332633263326333,-0.007428504251495066
2.6342634263426343,-0.007470424770406089
2.6352635263526354,-0.007512050310746044
2.6362636263626364,-0.007553379228881119
2.637263726372637,-0.007594409892890047
2.638263826382638,-0.00763514068262846
2.639263926392639,-0.007675569989792875
2.6402640264026402,-0.007715696217984232
2.6412641264126413,-0.007755517782770836
2.6422642264226424,-0.007795033111751074
2.6432643264326434,-0.007834240644615329
2.6442644264426445,-0.007873138833207746
2.645264526452645,-0.007911726141587272
2.646264626462646,-0.007950001046088326
2.647264726472647,-0.00798796203538099
2.6482648264826483,-0.00802560761053059
2.6492649264926493,-0.00806293628505702
2.6502650265026504,-0.00809994658499337
2.6512651265126514,-0.008136637048944066
2.652265226522652,-0.008173006228142697
2.653265326532653,-0.008209052686509143
2.654265426542654,-0.008244775000706316
2.6552655265526552,-0.008280171760196285
2.6562656265626563,-0.008315241567296093
2.6572657265726574,-0.008349983037232887
2.6582658265826584,-0.00838439479819853
2.6592659265926595,-0.0084184754914039
2.66026602660266,-0.008452223771132457
2.661266126612661,-0.008485638304793397
2.662266226622662,-0.008518717772974298
2.6632663266326633,-0.008551460869493138
2.6642664266426643,-0.008583866301450001
2.6652665266526654,-0.008615932789277983
2.6662666266626665,-0.00864765906679385
2.667266726672667,-0.00867904388124795
2.668266826682668,-0.008710085993373709
2.669266926692669,-0.008740784177436577
2.6702670267026702,-0.008771137221282355
2.6712671267126713,-0.008801143926385174
2.6722672267226724,-0.008830803107894754
2.6732673267326734,-0.008860113594683144
2.6742674267426745,-0.008889074229391091
2.675267526752675,-0.008917683868473579
2.676267626762676,-0.008945941382245182
2.677267726772677,-0.00897384565492445
2.6782678267826783,-0.009001395584678136
2.6792679267926793,-0.00902859008366465
2.6802680268026804,-0.00905542807807695
2.6812681268126815,-0.009081908508185056
2.682268226822682,-0.009108030328377816
2.683268326832683,-0.009133792507204218
2.684268426842684,-0.009159194027414125
2.6852685268526852,-0.009184233885998401
2.6862686268626863,-0.009208911094228592
2.6872687268726874,-0.009233224677695872
2.6882688268826884,-0.009257173676349612
2.6892689268926895,-0.009280757144535249
2.69026902690269,-0.00930397415103156
2.691269126912691,-0.009326823779087598
2.692269226922692,-0.009349305126458693
2.6932693269326933,-0.009371417305442229
2.6942694269426943,-0.009393159442912634
2.6952695269526954,-0.009414530680355833
2.6962696269626965,-0.009435530173903228
2.697269726972697,-0.0094561570943649
2.698269826982698,-0.009476410627262512
2.699269926992699,-0.00949628997286129
2.7002700270027002,-0.009515794346201737
2.7012701270127013,-0.009534922977130579
2.7022702270227024,-0.009553675110331143
2.7032703270327034,-0.00957205000535325
2.7042704270427045,-0.00959004693664241
2.705270527052705,-0.009607665193568447
2.706270627062706,-0.009624904080453654
2.707270727072707,-0.009641762916600133
2.7082708270827083,-0.009658241036316788
2.7092709270927093,-0.009674337788945523
2.7102710271027104,-0.009690052538887007
2.7112711271127115,-0.009705384665625729
2.712271227122712,-0.009720333563754475
2.713271327132713,-0.009734898642998334
2.714271427142714,-0.009749079328237872
2.7152715271527152,-0.00976287505953194
2.7162716271627163,-0.009776285292139758
2.7172717271727174,-0.009789309496542388
2.7182718271827184,-0.00980194715846371
2.7192719271927195,-0.009814197778890655
2.72027202720272,-0.009826060874092974
2.721272127212721,-0.0098375359756423
2.722272227222722,-0.009848622630430655
2.7232723272327233,-0.009859320400688347
2.7242724272427243,-0.009869628864001237
2.7252725272527254,-0.009879547613327442
2.7262726272627265,-0.009889076257013404
2.727272727272727,-0.009898214418809323
2.728272827282728,-0.009906961737884076
2.729272927292729,-0.009915317868839393
2.7302730273027302,-0.009923282481723557
2.7312731273127313,-0.00993085526204438
2.7322732273227324,-0.00993803591078167
2.7332733273327334,-0.009944824144399008
2.7342734273427345,-0.00995121969485494
2.735273527352735,-0.009957222309613585
2.736273627362736,-0.00996283175165459
2.737273727372737,-0.009968047799482486
2.7382738273827383,-0.009972870247135458
2.7392739273927393,-0.009977298904193434
2.7402740274027404,-0.009981333595785655
2.7412741274127415,-0.009984974162597537
2.742274227422742,-0.009988220460876987
2.743274327432743,-0.009991072362440078
2.744274427442744,-0.009993529754676093
2.7452745274527453,-0.009995592540551993
2.7462746274627463,-0.00999726063861623
2.7472747274727474,-0.009998533983001979
2.7482748274827484,-0.009999412523429728
2.7492749274927495,-0.009999896225209264
2.75027502750275,-0.009999985069241055
2.751275127512751,-0.009999679052016987
2.752275227522752,-0.009998978185620514
2.7532753275327533,-0.009997882497726172
2.7542754275427543,-0.009996392031598498
2.7552755275527554,-0.00999450684609031
2.7562756275627565,-0.009992227015640395
2.757275727572757,-0.009989552630270555
2.758275827582758,-0.00998648379558207
2.759275927592759,-0.009983020632751504
2.7602760276027603,-0.00997916327852595
2.7612761276127613,-0.009974911885217609
2.7622762276227624,-0.009970266620697778
2.7632763276327634,-0.00996522766839023
2.7642764276427645,-0.00995979522726397
2.765276527652765,-0.009953969511825367
2.766276627662766,-0.009947750752109697
2.7672767276727672,-0.00994113919367205
2.7682768276827683,-0.00993413509757765
2.7692769276927693,-0.009926738740391522
2.7702770277027704,-0.00991895041416759
2.7712771277127715,-0.009910770426437147
2.772277227722772,-0.009902199100196695
2.773277327732773,-0.009893236773895203
2.774277427742774,-0.009883883801420742
2.7752775277527753,-0.0098741405520865
2.7762776277627763,-0.009864007410616233
2.7772777277727774,-0.009853484777129023
2.7782778277827784,-0.009842573067123531
2.7792779277927795,-0.009831272711461544
2.78027802780278,-0.00981958415635099
2.781278127812781,-0.009807507863328315
2.7822782278227822,-0.009795044309240247
2.7832783278327833,-0.009782193986224997
2.7842784278427843,-0.009768957401692783
2.7852785278527854,-0.009755335078305815
2.7862786278627865,-0.009741327553957688
2.787278727872787,-0.00972693538175208
2.788278827882788,-0.009712159129980965
2.789278927892789,-0.009696999382102136
2.7902790279027903,-0.00968145673671621
2.7912791279127913,-0.009665531807542945
2.7922792279227924,-0.009649225223397024
2.7932793279327934,-0.009632537628163256
2.7942794279427945,-0.009615469680771095
2.795279527952795,-0.009598022055168666
2.796279627962796,-0.009580195440296127
2.7972797279727972,-0.009561990540058476
2.7982798279827983,-0.009543408073297786
2.7992799279927993,-0.009524448773764745
2.8002800280028004,-0.009505113390089772
2.8012801280128015,-0.00948540268575339
2.802280228022802,-0.009465317439056105
2.803280328032803,-0.009444858443087673
2.804280428042804,-0.009424026505695775
2.8052805280528053,-0.009402822449454158
2.8062806280628063,-0.009381247111630088
2.8072807280728074,-0.009359301344151324
2.8082808280828084,-0.009336986013572515
2.8092809280928095,-0.009314302001040895
2.81028102810281,-0.009291250202261611
2.811281128112811,-0.009267831527462191
2.8122812281228122,-0.009244046901356788
2.8132813281328133,-0.009219897263109525
2.8142814281428143,-0.009195383566297462
2.8152815281528154,-0.009170506778872978
2.8162816281628165,-0.009145267883125486
2.817281728172817,-0.009119667875642673
2.818281828182818,-0.009093707767271164
2.819281928192819,-0.009067388583076572
2.8202820282028203,-0.009040711362303092
2.8212821282128213,-0.009013677158332355
2.8222822282228224,-0.008986287038641958
2.8232823282328234,-0.00895854208476321
2.8242824282428245,-0.00893044339223846
2.825282528252825,-0.008901992070577918
2.826282628262826,-0.008873189243215653
2.8272827282728272,-0.008844036047465474
2.8282828282828283,-0.008814533634475829
2.8292829282928293,-0.008784683169184427
2.8302830283028304,-0.008754485830272283
2.8312831283128315,-0.008723942810117057
2.832283228322832,-0.008693055314746135
2.833283328332833,-0.008661824563788804
2.834283428342834,-0.008630251790428261
2.8352835283528353,-0.008598338241352898
2.8362836283628363,-0.008566085176706964
2.8372837283728374,-0.008533493870040963
2.8382838283828384,-0.00850056560826122
2.8392839283928395,-0.008467301691579143
2.84028402840284,-0.008433703433459937
2.841284128412841,-0.00839977216057055
2.8422842284228422,-0.00836550921272754
2.8432843284328433,-0.008330915942843973
2.8442844284428443,-0.008295993716876062
2.8452845284528454,-0.008260743913769308
2.8462846284628465,-0.008225167925403903
2.847284728472847,-0.008189267156539948
2.848284828482848,-0.008153043024761749
2.849284928492849,-0.008116496960422114
2.8502850285028503,-0.008079630406585669
2.8512851285128513,-0.00804244481897194
2.8522852285228524,-0.00800494166589794
2.8532853285328534,-0.007967122428220078
2.8542854285428545,-0.007928988599275724
2.855285528552855,-0.007890541684824353
2.856285628562856,-0.007851783202987836
2.8572857285728572,-0.007812714684190807
2.8582858285828583,-0.007773337671099961
2.8592859285928593,-0.007733653718563351
2.8602860286028604,-0.007693664393548829
2.8612861286128615,-0.007653371275082237
2.862286228622862,-0.007612775954185156
2.863286328632863,-0.007571880033811826
2.864286428642864,-0.007530685128786177
2.8652865286528653,-0.007489192865737805
2.8662866286628663,-0.007447404883037844
2.8672867286728674,-0.007405322830734338
2.8682868286828684,-0.007362948370486922
2.8692869286928695,-0.007320283175501401
2.87028702870287,-0.007277328930463514
2.871287128712871,-0.007234087331472508
2.8722872287228722,-0.007190560085974138
2.8732873287328733,-0.007146748912693231
2.8742874287428744,-0.007102655541565908
2.8752875287528754,-0.007058281713671134
2.8762876287628765,-0.0070136291811620415
2.877287728772877,-0.006968699707196843
2.878287828782878,-0.00692349506586894
2.879287928792879,-0.006878017042137217
2.8802880288028803,-0.00683226743175526
2.8812881288128813,-0.00678624804120068
2.8822882288228824,-0.006739960687603599
2.8832883288328834,-0.006693407198674976
2.8842884288428845,-0.006646589412634519
2.885288528852885,-0.006599509178137941
2.886288628862886,-0.006552168354204071
2.8872887288728872,-0.006504568810141417
2.8882888288828883,-0.006456712425474334
2.8892889288928894,-0.0064086010898689125
2.8902890289028904,-0.006360236703058174
2.8912891289128915,-0.006311621174767277
2.892289228922892,-0.006262756424637915
2.893289328932893,-0.006213644382152629
2.894289428942894,-0.006164286986558592
2.8952895289528953,-0.006114686186791007
2.8962896289628963,-0.006064843941396264
2.8972897289728974,-0.006014762218454434
2.8982898289828984,-0.005964442995501642
2.8992899289928995,-0.005913888259452069
2.9002900290029,-0.005863100006519324
2.901290129012901,-0.005812080242137735
2.9022902290229022,-0.005760830980883104
2.9032903290329033,-0.005709354246393275
2.9042904290429044,-0.0056576520712880605
2.9052905290529054,-0.005605726497089055
2.9062906290629065,-0.005553579574139125
2.907290729072907,-0.005501213361521262
2.908290829082908,-0.005448629926977403
2.909290929092909,-0.005395831346826747
2.9102910291029103,-0.005342819705883745
2.9112911291129113,-0.005289597097375891
2.9122912291229124,-0.005236165622860869
2.9132913291329134,-0.005182527392143801
2.9142914291429145,-0.005128684523193735
2.915291529152915,-0.005074639142060128
2.916291629162916,-0.005020393382788876
2.9172917291729172,-0.004965949387338007
2.9182918291829183,-0.004911309305493236
2.9192919291929194,-0.004856475294782885
2.9202920292029204,-0.0048014495203927915
2.9212921292129215,-0.004746234155080898
2.922292229222922,-0.004690831379091279
2.923292329232923,-0.00463524338006817
2.924292429242924,-0.004579472352969529
2.9252925292529253,-0.0045235204999804855
2.9262926292629263,-0.004467390030426201
2.9272927292729274,-0.004411083160684723
2.9282928292829284,-0.004354602114099565
2.9292929292929295,-0.004297949120891723
2.93029302930293,-0.0042411264180717435
2.931293129312931,-0.004184136249351354
2.9322932293229322,-0.004126980865054843
2.9332933293329333,-0.004069662522030326
2.9342934293429344,-0.004012183483560408
2.9352935293529354,-0.003954546019273076
2.9362936293629365,-0.003896752405051847
2.937293729372937,-0.0038388049229460394
2.938293829382938,-0.003780705861080624
2.939293929392939,-0.0037224575135658467
2.9402940294029403,-0.0036640621804067725
2.9412941294129413,-0.00360552216741227
2.9422942294229424,-0.003546839786104063
2.9432943294329434,-0.0034880173536255546
2.9442944294429445,-0.0034290571926501017
2.945294529452945,-0.003369961631289603
2.946294629462946,-0.0033107330030021993
2.9472947294729472,-0.003251373646500436
2.9482948294829483,-0.003191885905658887
2.9492949294929494,-0.003132272129421397
2.9502950295029504,-0.003072534671708603
2.9512951295129515,-0.0030126758913247504
2.952295229522952,-0.002952698151864689
2.953295329532953,-0.0028926038216205065
2.954295429542954,-0.0028323952734879833
2.9552955295529553,-0.0027720748848730297
2.9562956295629563,-0.002711645037597608
2.9572957295729574,-0.002651108117805786
2.9582958295829584,-0.0025904665158696183
2.9592959295929595,-0.0025297226262945218
2.96029602960296,-0.0024688788476250317
2.961296129612961,-0.0024079375823496843
2.9622962296229622,-0.0023469012368066296
2.9632963296329633,-0.0022857722210882373
2.9642964296429644,-0.002224552948946068
2.9652965296529654,-0.0021632458376956674
2.9662966296629665,-0.002101853308120911
2.967296729672967,-0.0020403777843785503
2.968296829682968,-0.00197882169390246
2.969296929692969,-0.0019171874673077549
2.9702970297029703,-0.001855477538294949
2.9712971297129713,-0.001793694343553618
2.9722972297229724,-0.0017318403226664605
2.9732973297329734,-0.0016699179180127254
2.9742974297429745,-0.0016079295746718753
2.975297529752975,-0.0015458777403271793
