Time,ECG
0.0,-0.03787471603086755
0.001000100010001,0.05025708728322957
0.002000200020002,-0.03049962310875182
0.003000300030003,-0.019667306276722352
0.004000400040004,0.005310922534728608
0.005000500050005001,-0.028840801743224287
0.006000600060006,-0.023659263265379836
0.0070007000700070005,0.018178682016363284
0.008000800080008,0.01028125417945183
0.009000900090009001,0.020110326270120618
0.010001000100010001,0.0067797876229016745
0.011001100110011002,0.022075672061736173
0.012001200120012,0.004466370255491341
0.013001300130013,-0.026778098812742183
0.014001400140014001,0.0032495024390830395
0.015001500150015001,-0.01844449068929934
0.016001600160016,0.013249943639255019
0.017001700170017002,-0.006875453760067768
0.018001800180018002,-0.009673381533080193
0.019001900190019003,-0.006529600789030228
0.020002000200020003,0.010066250328073189
0.021002100210021003,0.029932708440097804
0.022002200220022004,0.002754267655933978
0.023002300230023004,0.005533987677629573
0.024002400240024,0.00045321686971144115
0.025002500250025,0.04411366339572854
0.026002600260026,0.0420276405817732
0.027002700270027002,-0.05197275216377751
0.028002800280028002,0.003164462054370959
0.029002900290029002,-0.0074277712638522305
0.030003000300030003,0.009945882098328543
0.031003100310031003,0.004626412897547578
0.032003200320032,0.005499920429191441
0.033003300330033,0.008006668689413052
0.034003400340034004,-0.05596302905853127
0.035003500350035,0.004820164153416882
0.036003600360036005,-0.021537920554054683
0.037003700370037,-0.011958605040591907
0.038003800380038005,-0.0379071103732638
0.039003900390039,-0.019042194524685967
0.040004000400040006,0.03604408706492009
0.041004100410041,-0.0038262871384196246
0.04200420042004201,0.02872754271242064
0.043004300430043,-0.021064366858742963
0.04400440044004401,-0.017026598467616366
0.045004500450045004,0.01347043847956791
0.04600460046004601,0.011040409585694072
0.047004700470047005,-0.04408208751717487
0.048004800480048,-0.0293407736923121
0.049004900490049005,0.01952825264585674
0.05000500050005,0.022772277348836103
0.051005100510051006,-0.05656632312222603
0.052005200520052,0.008929498601352602
0.05300530053005301,0.0274411986975691
0.054005400540054004,-0.014296618783167502
0.05500550055005501,0.044552294518784535
0.056005600560056004,0.033873362119341055
0.05700570057005701,0.007763705397659731
0.058005800580058005,0.034783364095819926
0.05900590059005901,-0.015117493794473167
0.060006000600060005,0.0019661792463204412
0.06100610061006101,-0.042019191421898194
0.062006200620062006,0.004653033283689989
0.063006300630063,-0.014430044744037229
0.064006400640064,-0.10167432461984914
0.06500650065006501,-0.006673455165494513
0.066006600660066,0.06800644330908896
0.067006700670067,-0.01163755131812787
0.06800680068006801,-0.0017499941617519076
0.06900690069006901,0.01058693282029433
0.07000700070007,-0.019313602517485637
0.071007100710071,0.011498002013589042
0.07200720072007201,-0.05078559856303046
0.07300730073007301,0.01108251404878314
0.074007400740074,-0.02069510249027347
0.075007500750075,-0.006200109857961854
0.07600760076007601,-0.017927974378370716
0.07700770077007701,-0.004342061304068954
0.078007800780078,-0.03549343486588289
0.07900790079007901,0.02505164544139914
0.08000800080008001,-0.04457492261443662
0.081008100810081,0.019070617996208582
0.082008200820082,0.034352488261279485
0.08300830083008301,0.025745878816140405
0.08400840084008401,-0.020124000707300867
0.085008500850085,-0.029911867732245485
0.086008600860086,0.01960359788705419
0.08700870087008701,-0.00030527652555593573
0.08800880088008801,0.03977116456739817
0.089008900890089,-0.029487120907870933
0.09000900090009001,-0.037406107446703654
0.09100910091009101,-0.0038032584500239286
0.09200920092009202,-0.0009439922986482232
0.093009300930093,0.009491731498613
0.09400940094009401,-0.0293947148025211
0.09500950095009501,0.002885421631151209
0.096009600960096,-0.016416863499246828
0.09700970097009701,0.007700453775444196
0.09800980098009801,-0.0099612977550172
0.09900990099009901,0.005042520194204849
0.1000100010001,0.07341674851434554
0.10101010101010101,0.510619633575814
0.10201020102010201,0.9755453346320998
0.10301030103010302,0.28053695274049856
0.104010401040104,0.12515177906966038
0.10501050105010501,0.0067674545201679495
0.10601060106010601,0.04888764703248049
0.10701070107010702,0.016405735248506734
0.10801080108010801,0.02125315843871502
0.10901090109010901,-0.042734636780513986
0.11001100110011001,-0.022365271804996076
0.11101110111011102,0.0010473877289519863
0.11201120112011201,-0.028750848820969604
0.11301130113011301,-0.01650700220227463
0.11401140114011402,-0.05906890892119689
0.115011501150115,0.010789209916289033
0.11601160116011601,0.08858856215521994
0.11701170117011701,0.011797326281392809
0.11801180118011802,0.02712684782206139
0.11901190119011901,-0.036359850704407136
0.12001200120012001,0.03033751375213759
0.12101210121012101,0.0404227940619543
0.12201220122012202,-0.03662581216997321
0.12301230123012301,-0.01114163870672514
0.12401240124012401,-0.030723201398199337
0.125012501250125,-0.001442653679711186
0.126012601260126,-0.00764554902707483
0.127012701270127,0.021232429947401165
0.128012801280128,0.022881272124902704
0.12901290129012902,0.014005964378274614
0.13001300130013002,-0.029862341719892795
0.13101310131013102,-0.02482689019238361
0.132013201320132,0.061877560460494266
0.133013301330133,-0.009423608055501681
0.134013401340134,-0.029315342592179775
0.135013501350135,0.017949169648861545
0.13601360136013602,0.004790518183415555
0.13701370137013702,0.003006088117098448
0.13801380138013802,-0.02670217259427382
0.13901390139013903,-0.0690874081379462
0.14001400140014,0.04436512001737904
0.141014101410141,-0.04899443150068681
0.142014201420142,-0.03560558934891303
0.14301430143014301,0.03429443940250852
0.14401440144014402,-0.013424650574601021
0.14501450145014502,-0.04161686033354907
0.14601460146014603,-0.002921150293140001
0.147014701470147,-0.030641497177175344
0.148014801480148,-0.04646442775618123
0.149014901490149,-0.019981053443366568
0.15001500150015,-0.0022710151896995676
0.15101510151015102,-0.025872944361576278
0.15201520152015202,-0.00483044370805569
0.15301530153015303,-0.013128699066505493
0.15401540154015403,-0.0021584907846405187
0.155015501550155,-0.0538420984863264
0.156015601560156,-0.028101835522692676
0.157015701570157,0.02875622681525057
0.15801580158015802,0.053353917769985014
0.15901590159015902,0.019914501409002545
0.16001600160016002,0.018243749042477376
0.16101610161016103,0.02872612941258318
0.162016201620162,0.02495299623817147
0.163016301630163,-0.04049112683348708
0.164016401640164,-0.02349623405602843
0.16501650165016502,0.031736764253615594
0.16601660166016602,-0.01696052728640481
0.16701670167016702,0.03409832534625676
0.16801680168016803,-0.04244080804643492
0.16901690169016903,-0.006203468201498969
0.17001700170017,-0.027244375733708734
0.171017101710171,0.003729588435630882
0.172017201720172,0.038130640771765124
0.17301730173017302,0.014057426142345364
0.17401740174017402,-0.028074035641162592
0.17501750175017503,0.013240176864175434
0.17601760176017603,0.014217761763960089
0.177017701770177,-0.05058114907101436
0.178017801780178,0.01303407655471527
0.179017901790179,0.031097834818027185
0.18001800180018002,-0.015571469363743285
0.18101810181018102,-0.010744818720464507
0.18201820182018202,0.002716847848914137
0.18301830183018303,-0.05461079334818289
0.18401840184018403,0.010746177500430797
0.185018501850185,-0.04205753935643524
0.186018601860186,-0.0003289581518574055
0.18701870187018702,0.009553913735035962
0.18801880188018802,0.012180087597227631
0.18901890189018902,-0.009159086131134246
0.19001900190019003,0.01410498191125056
0.19101910191019103,0.03087076106519724
0.192019201920192,0.026534325831961157
0.193019301930193,-0.007541491947415191
0.19401940194019401,0.017443200950594293
0.19501950195019502,0.009231772133409592
0.19601960196019602,-0.009687246507910805
0.19701970197019703,0.012038199613830116
0.19801980198019803,0.0006005525462473102
0.19901990199019903,-0.027706253131222415
0.2000200020002,-0.027222513498726432
0.201020102010201,0.008070716391908329
0.20202020202020202,0.030946930129294885
0.20302030203020302,-0.0018207570527670363
0.20402040204020402,-0.04599679588579862
0.20502050205020503,0.01727713861609579
0.20602060206020603,-0.011643390758271274
0.20702070207020704,-0.016532008914845193
0.208020802080208,0.018570900723090807
0.20902090209020902,-0.010237541866009354
0.21002100210021002,-0.03593334072239734
0.21102110211021102,-0.02267668246984011
0.21202120212021203,0.019534777908806315
0.21302130213021303,0.02204662981477047
0.21402140214021403,0.020932671459437655
0.215021502150215,0.019581643152613563
0.21602160216021601,0.04154712917581748
0.21702170217021702,-0.05899331809368241
0.21802180218021802,0.005264259028205503
0.21902190219021903,-0.024237225133941057
0.22002200220022003,0.004525587512301903
0.22102210221022103,0.04186896649841092
0.22202220222022204,0.002045984020241013
0.223022302230223,0.030244212118224544
0.22402240224022402,-0.0031041370139563173
0.22502250225022502,-0.009133218095708627
0.22602260226022602,-0.007014144089025022
0.22702270227022703,-0.04201939273970115
0.22802280228022803,0.01130934627825183
0.22902290229022904,-0.011108902442447168
0.23002300230023,-0.02263444925647589
0.23102310231023102,0.04784421447425828
0.23202320232023202,0.0030489918663400358
0.23302330233023302,-0.013065869667732348
0.23402340234023403,-0.05148913240100251
0.23502350235023503,0.05536604883696005
0.23602360236023603,-0.027893552341860108
0.23702370237023704,-0.043802747764823305
0.23802380238023801,-0.05713239290422088
0.23902390239023902,0.05860717410037426
0.24002400240024002,-0.05640875814038923
0.24102410241024103,0.006564305784694475
0.24202420242024203,-0.037094463137548064
0.24302430243024303,0.0518565820690955
0.24402440244024404,-0.026813447917687444
0.245024502450245,-0.030863345076911804
0.24602460246024602,0.0021866134324574726
0.24702470247024702,0.015009634317724998
0.24802480248024802,-0.025449166467239548
0.24902490249024903,0.029011349529110365
0.25002500250025,-0.01830532275962275
0.251025102510251,-0.06827184655733826
0.252025202520252,-0.007234414737291889
0.253025302530253,0.02647235142381245
0.254025402540254,0.03894929748373738
0.255025502550255,-0.02721556536112896
0.256025602560256,0.03777340255055866
0.25702570257025703,0.005419825137065262
0.25802580258025803,-0.007136237285337026
0.25902590259025904,-0.024460177154362862
0.26002600260026004,-0.0029168488514033425
0.26102610261026105,-0.01032142413936407
0.26202620262026205,0.022527236369488935
0.26302630263026305,-0.06622143810917411
0.264026402640264,0.03680761978822895
0.265026502650265,0.024029113629227338
0.266026602660266,0.01273618104000228
0.267026702670267,0.01743347309213299
0.268026802680268,-0.041812483079140955
0.269026902690269,-0.023652837161004
0.27002700270027,-0.0018663081345435693
0.27102710271027103,0.010923119806320158
0.27202720272027203,0.037239016121002666
0.27302730273027304,-0.024480007538035416
0.27402740274027404,0.02455391788171399
0.27502750275027504,-0.06872248387241552
0.27602760276027605,-0.04613891705815417
0.27702770277027705,-0.03793865300825033
0.27802780278027805,-0.02605259662387149
0.279027902790279,-0.012462448005677732
0.28002800280028,-0.004466194071942873
0.281028102810281,0.0003638170676593002
0.282028202820282,-0.02083442456298765
0.283028302830283,-0.029398974193812027
0.284028402840284,-0.014629215869055651
0.285028502850285,0.038692786488847726
0.28602860286028603,0.012517997010771295
0.28702870287028703,-0.009455760198882994
0.28802880288028804,-0.025312170607936307
0.28902890289028904,-0.005072112452987107
0.29002900290029004,-0.0530421745425016
0.29102910291029105,-0.024482959974188118
0.29202920292029205,0.02393349469384904
0.29302930293029306,-0.04900730217929711
0.294029402940294,-0.07470371136916505
0.295029502950295,0.025378354105726777
0.296029602960296,-0.05616380862211952
0.297029702970297,0.011283828686374401
0.298029802980298,0.07226026296653831
0.299029902990299,0.013050550527948193
0.3000300030003,-0.0062092329997352836
0.30103010301030103,0.0675149103420942
0.30203020302030203,0.03378195161417762
0.30303030303030304,-0.0009586050637862126
0.30403040304030404,-0.013939365644688019
0.30503050305030505,-0.06351333750940917
0.30603060306030605,0.05665456900444024
0.30703070307030705,-0.009321407998863504
0.30803080308030806,0.03303406663697516
0.309030903090309,0.04378988939394422
0.31003100310031,-0.023019053824281713
0.311031103110311,0.04057440781204656
0.312031203120312,-0.00688752186556562
0.313031303130313,0.03171428426893749
0.314031403140314,0.030199033611729684
0.31503150315031503,0.05778836656932069
0.31603160316031603,-0.034049525646208924
0.31703170317031704,-0.0391667751008623
0.31803180318031804,0.03955848418813489
0.31903190319031904,0.009749129636478575
0.32003200320032005,0.018372028528558196
0.32103210321032105,-0.05997314837819301
0.32203220322032206,-0.00828001938316183
0.32303230323032306,0.0008618544858547857
0.324032403240324,-0.013513580843857637
0.325032503250325,0.0067957663428826415
0.326032603260326,0.033031361239974084
0.327032703270327,0.0023244334482126656
0.328032803280328,-0.024365303882179282
0.329032903290329,-0.02074960543055435
0.33003300330033003,-0.07065611672197289
0.33103310331033103,0.039451209459223605
0.33203320332033204,-0.020674381554963102
0.33303330333033304,0.022168632201392032
0.33403340334033405,-0.030925275236265957
0.33503350335033505,-0.027412828282368885
0.33603360336033605,-0.0011533094568354555
0.33703370337033706,0.03592188892868705
0.33803380338033806,0.012507624215652248
0.339033903390339,-0.06614795162592167
0.34003400340034,-0.01229508669828502
0.341034103410341,0.0008273572636761166
0.342034203420342,-0.012727042918252803
0.343034303430343,-0.02926845401292121
0.344034403440344,0.04315946603770335
0.34503450345034503,-0.0478790216465998
0.34603460346034604,-0.012201874628147313
0.34703470347034704,0.04115057302820907
0.34803480348034804,-0.023555862269764794
0.34903490349034905,-0.02011431328663516
0.35003500350035005,-0.033656685880591654
0.35103510351035105,-0.026338259161817982
0.35203520352035206,0.00695607770876882
0.35303530353035306,0.01802812853016219
0.354035403540354,0.03275057391571415
0.355035503550355,0.014158986487696675
0.356035603560356,0.12734241170335206
0.357035703570357,0.513451275414197
0.358035803580358,0.9863064364612002
0.35903590359035903,0.3225481508062608
0.36003600360036003,0.10293231701982836
0.36103610361036104,0.008579100127177322
0.36203620362036204,-0.006469117862670593
0.36303630363036304,-0.041474351468722304
0.36403640364036405,-0.023260887019425292
0.36503650365036505,0.029925892515722616
0.36603660366036606,-0.029228590522357434
0.36703670367036706,0.028261179261775047
0.36803680368036806,-0.006089950528929407
0.369036903690369,0.012982255401575167
0.37003700370037,0.04375647837378725
0.371037103710371,-0.003819397404507168
0.372037203720372,-0.009258142801286319
0.373037303730373,0.00817630893665984
0.37403740374037403,-0.006385984861459048
0.37503750375037503,0.026708257841511533
0.37603760376037604,-0.010300293605394209
0.37703770377037704,0.00763926195544507
0.37803780378037805,0.016289982879922834
0.37903790379037905,0.013319252053181714
0.38003800380038005,-0.037948982716583486
0.38103810381038106,0.0040659277443018645
0.38203820382038206,0.0027126829701640876
0.38303830383038306,0.03739835787501331
0.384038403840384,0.019613387589510006
0.385038503850385,0.025377385444957323
0.386038603860386,0.002567885970858501
0.387038703870387,-0.0231897319773997
0.38803880388038803,0.010344016754262237
0.38903890389038903,0.011397512495458721
0.39003900390039004,-0.07088120621304668
0.39103910391039104,0.007148547652791451
0.39203920392039204,-0.00997565052184194
0.39303930393039305,-0.03930766909533408
0.39403940394039405,-0.032355322160068534
0.39503950395039505,0.018175230502531125
0.39603960396039606,-0.015385149970928966
0.39703970397039706,-0.010609790272390921
0.39803980398039807,-0.004940751602574073
0.39903990399039907,-0.03558123026976219
0.4000400040004,0.07752741688180802
0.401040104010401,0.0020310944576114104
0.402040204020402,-0.017395579069999216
0.40304030403040303,0.0010145504902279367
0.40404040404040403,-0.012050057714813737
0.40504050405040504,0.022760453431483193
0.40604060406040604,0.002203353424794921
0.40704070407040704,-0.032730462111183425
0.40804080408040805,-0.059120154037757
0.40904090409040905,0.013151539897917237
0.41004100410041006,0.02653813124744306
0.41104110411041106,-0.0075090692309112755
0.41204120412041206,0.04028885533479471
0.41304130413041307,0.019020842568565163
0.41404140414041407,-0.012095819945763578
0.415041504150415,-0.06151480741306953
0.416041604160416,-0.008094821544645041
0.417041704170417,-0.010935804080735504
0.41804180418041803,-0.015406761932657559
0.41904190419041903,-0.004048473879143377
0.42004200420042004,0.013032450035691576
0.42104210421042104,0.02922061262705448
0.42204220422042205,0.012915548051857084
0.42304230423042305,0.007272951649204561
0.42404240424042405,0.06387762027385578
0.42504250425042506,0.0004238214734207736
0.42604260426042606,-0.03456674331572332
0.42704270427042706,-0.002308242678091811
0.42804280428042807,0.0010858147235585853
0.4290429042904291,0.044490536580969714
0.43004300430043,-0.0010708338539139012
0.431043104310431,-0.024400873057093847
0.43204320432043203,-0.0006996259840563673
0.43304330433043303,-0.004297179380259865
0.43404340434043404,-0.00983135482227829
0.43504350435043504,-0.027316589397233266
0.43604360436043604,0.010905153871581587
0.43704370437043705,0.033291810036955034
0.43804380438043805,-0.043190475473064524
0.43904390439043905,0.07818779326946794
0.44004400440044006,-0.009753111883650354
0.44104410441044106,-0.018191751796845165
0.44204420442044207,-0.005613856519406262
0.44304430443044307,0.010093281864068115
0.4440444044404441,-0.02043819949145453
0.445044504450445,0.03633586452999205
0.446044604460446,0.01854933580801273
0.44704470447044703,0.009798168136243356
0.44804480448044803,0.018910775124429825
0.44904490449044904,-0.015499124489010162
0.45004500450045004,0.04297339253084109
0.45104510451045104,-0.026658997878480375
0.45204520452045205,0.0027351428249539605
0.45304530453045305,0.026765019098843313
0.45404540454045406,-0.012138699501606865
0.45504550455045506,0.030604500094615503
0.45604560456045606,0.00546714828030545
0.45704570457045707,0.016516265277966125
0.45804580458045807,-0.00974362948159515
0.4590459045904591,0.010063841232855756
0.46004600460046,-0.010543546597023968
0.461046104610461,-0.00033995574193136185
0.46204620462046203,0.005501538349679425
0.46304630463046303,-0.04775359915467117
0.46404640464046404,-0.0453927021863699
0.46504650465046504,0.03702068222409911
0.46604660466046605,-0.024509903437240882
0.46704670467046705,-0.009026950867605745
0.46804680468046805,-0.005265517555498035
0.46904690469046906,-0.014003506394819997
0.47004700470047006,-0.03587489633245323
0.47104710471047107,0.007935146798459039
0.47204720472047207,-0.0005107224063129927
0.4730473047304731,-0.013631221413822699
0.4740474047404741,0.016233578688307073
0.475047504750475,0.01161700571044384
0.47604760476047603,0.02013929077596278
0.47704770477047703,0.037608882916976505
0.47804780478047804,0.008203582053650547
0.47904790479047904,0.0037455624882281346
0.48004800480048004,0.014962953313205962
0.48104810481048105,0.04500717179437793
0.48204820482048205,0.045311446863741424
0.48304830483048306,0.005253025261780068
0.48404840484048406,-0.042740402517247006
0.48504850485048506,-0.057716430452624166
0.48604860486048607,0.022715965449099332
0.48704870487048707,-0.009890274504837166
0.4880488048804881,0.008138787241226469
0.4890489048904891,-0.009706454454017794
0.49004900490049,-0.011410978358126699
0.49104910491049103,-0.01581539888678149
0.49204920492049203,-0.024476476949536863
0.49304930493049304,-0.027993904333218887
0.49404940494049404,0.059662081548861184
0.49504950495049505,-0.011624612807923405
0.49604960496049605,0.009041383627772183
0.49704970497049705,-0.013415695691296806
0.49804980498049806,0.011245995705947812
0.49904990499049906,0.011412725138775897
0.5000500050005,0.030973899408963158
0.5010501050105011,0.005054230765397009
0.502050205020502,0.02175513870778337
0.5030503050305031,-0.04174990097247901
0.504050405040504,0.009444866109930877
0.5050505050505051,-0.00684986774631174
0.506050605060506,-0.02096414746801261
0.5070507050705071,0.05379362941088863
0.508050805080508,-0.0028102546957728
0.5090509050905091,0.035955217672704695
0.51005100510051,-0.023541142737914047
0.5110511051105111,0.042761655093643644
0.512051205120512,0.019392896281239864
0.513051305130513,0.034222890131558596
0.5140514051405141,0.011764347318550729
0.515051505150515,0.0047872732981606835
0.5160516051605161,-0.009127332179489023
0.517051705170517,0.027788956038951946
0.5180518051805181,0.0016615438873723775
0.519051905190519,-0.004877852525134096
0.5200520052005201,-0.038685093909538754
0.521052105210521,0.03199812811190339
0.5220522052205221,-0.019745717478189314
0.523052305230523,-0.0506953967688107
0.5240524052405241,0.009895630659003795
0.525052505250525,-0.04971541000495224
0.5260526052605261,-0.00017641119671878242
0.527052705270527,0.0139455920912067
0.528052805280528,-0.04134881135993562
0.5290529052905291,0.02493070927247014
0.53005300530053,-0.028183507863944
0.5310531053105311,0.015937560448807446
0.532053205320532,-0.014104514309075602
0.5330533053305331,0.021833619044278874
0.534053405340534,0.027134573949447204
0.5350535053505351,0.011048655051863835
0.536053605360536,-0.03281975922138537
0.5370537053705371,-0.015322092097334365
0.538053805380538,-0.019487776164333538
0.5390539053905391,-0.007399115193040788
0.54005400540054,-0.0026758882929557425
0.5410541054105411,0.08793780777498994
0.5420542054205421,-0.027352249983137865
0.543054305430543,-0.03851578511181443
0.5440544054405441,-0.001422258063414322
0.545054505450545,0.01632825839688687
0.5460546054605461,0.024770744525561845
0.547054705470547,0.03756948803724056
0.5480548054805481,0.027554961109470675
0.549054905490549,-0.001863572400631533
0.5500550055005501,-0.02914501039886913
0.551055105510551,0.04617534512715553
0.5520552055205521,-0.004836557649879561
0.553055305530553,0.003501307490405544
0.5540554055405541,-0.016725135985132176
0.555055505550555,0.020218831605632176
0.5560556055605561,-0.04092382384871526
0.5570557055705571,-0.02626689842319163
0.558055805580558,0.05841877999971363
0.5590559055905591,-0.011803009304433426
0.56005600560056,-0.016980217431663704
0.5610561056105611,-0.0013666150060515018
0.562056205620562,-0.019538247698405595
0.5630563056305631,-0.008280971685247105
0.564056405640564,-0.02638950626254275
0.5650565056505651,0.025845829544752837
0.566056605660566,-0.008962511677463756
0.5670567056705671,0.03163175992640945
0.568056805680568,0.023331508457681664
0.5690569056905691,-0.015458399391052752
0.57005700570057,0.0515384918804434
0.5710571057105711,0.014413101189572553
0.5720572057205721,0.03282226266349141
0.573057305730573,-0.024383113465366302
0.5740574057405741,0.021907459986782413
0.575057505750575,0.026080936320763106
0.5760576057605761,0.00023705008661443748
0.577057705770577,-0.014393889140527699
0.5780578057805781,-0.029173949505032364
0.579057905790579,0.009312568500035262
0.5800580058005801,-0.02328236196636202
0.581058105810581,-0.00656277987165631
0.5820582058205821,-0.030093519408710436
0.583058305830583,0.008503703086359107
0.5840584058405841,-0.007597628136473659
0.585058505850585,-0.002657194256222205
0.5860586058605861,-0.0007292674497466364
0.5870587058705871,-0.03549058142278185
0.588058805880588,-0.0246598677030155
0.5890589058905891,-0.011254481454004229
0.59005900590059,0.02035914609191342
0.5910591059105911,-0.0001776544897674099
0.592059205920592,0.044047690640419655
0.5930593059305931,-0.020918913532610876
0.594059405940594,-0.045698348420743766
0.5950595059505951,0.037831384137585786
0.596059605960596,-0.0559198099865838
0.5970597059705971,-0.0325604476086734
0.598059805980598,-0.017197481525983143
0.5990599059905991,-0.01905620213984673
0.6000600060006,-0.004143131403744275
0.6010601060106011,-0.02336775549644009
0.6020602060206021,-0.008517620787680532
0.603060306030603,-0.06922303260422015
0.6040604060406041,0.054366195147750214
0.605060506050605,0.019514734436437677
0.6060606060606061,0.041527528762390103
0.607060706070607,0.005219475951162074
0.6080608060806081,0.0007921963745064065
0.609060906090609,-0.004730122379686751
0.6100610061006101,0.03423547571934241
0.611061106110611,-0.0008969120639361811
0.6120612061206121,0.10152642824329353
0.613061306130613,0.4718353982102701
0.6140614061406141,0.9460942903507403
0.6150615061506151,0.27969259602719154
0.6160616061606161,0.1235935831895039
0.6170617061706171,0.0235846197722552
0.618061806180618,-0.02678442908106735
0.6190619061906191,-0.02557016395809638
0.62006200620062,0.01551675644668097
0.6210621062106211,-0.04731501022886221
0.622062206220622,0.01334354439627603
0.6230623062306231,-0.007480629935045578
0.624062406240624,0.011506194646495129
0.6250625062506251,0.017332504658593643
0.626062606260626,0.039790726309576946
0.6270627062706271,0.006276550544354692
0.628062806280628,0.0025048454017333162
0.6290629062906291,0.00429798932205589
0.6300630063006301,-0.01911706212790654
0.6310631063106311,0.023668913809858808
0.6320632063206321,0.027030611088397653
0.633063306330633,0.044033714701877724
0.6340634063406341,0.047268448534233884
0.635063506350635,0.009613362017136765
0.6360636063606361,0.016047185157733092
0.637063706370637,-0.02626843675505888
0.6380638063806381,-0.03733054683701727
0.639063906390639,-0.023926996402722393
0.6400640064006401,0.05723174141197102
0.641064106410641,0.05121649851705851
0.6420642064206421,0.007175603253601645
0.643064306430643,0.0016028712268470744
0.6440644064406441,0.015565635730284822
0.6450645064506451,0.006578896500171225
0.6460646064606461,0.016866872697103925
0.6470647064706471,-0.021498593684736892
0.648064806480648,0.02313638644024301
0.6490649064906491,-0.03971063341181004
0.65006500650065,0.01986301383034787
0.6510651065106511,0.028777857906357382
0.652065206520652,-0.030134348655466082
0.6530653065306531,0.0323088423112513
0.654065406540654,-0.002042593231277607
0.6550655065506551,0.022077731975799774
0.656065606560656,-0.0301469875726775
0.6570657065706571,-0.00833645201095257
0.658065806580658,0.0407865479869862
0.6590659065906591,-0.012749797894339542
0.6600660066006601,0.011326387719119773
0.6610661066106611,0.03540396332409366
0.6620662066206621,-0.04392278330273848
0.663066306630663,-0.001169717917832024
0.6640664066406641,0.022362143072147234
0.665066506650665,-0.07496476996071746
0.6660666066606661,0.008197250793644773
0.667066706670667,-0.025015221324651525
0.6680668066806681,0.021859235480434887
0.669066906690669,-0.0038327251802685357
0.6700670067006701,-0.08439127306652808
0.671067106710671,-0.02263429988963411
0.6720672067206721,0.005981767998427945
0.673067306730673,-0.005569145784412198
0.6740674067406741,-0.02225580077837437
0.6750675067506751,-0.023591452950685873
0.6760676067606761,-0.029898275608961147
0.6770677067706771,-0.0202103111092504
0.678067806780678,-0.04645010443811703
0.6790679067906791,-0.02010394355044791
0.68006800680068,0.004248663928409396
0.6810681068106811,0.001941249460497259
0.682068206820682,-0.04239564903946856
0.6830683068306831,-0.010642168260536206
0.684068406840684,-0.00978425426104066
0.6850685068506851,-0.06692053725776552
0.686068606860686,-0.029991079751137774
0.6870687068706871,-0.035409226731749115
0.688068806880688,-0.02049375090877701
0.6890689068906891,0.03571298235915365
0.6900690069006901,0.007438027090737103
0.6910691069106911,0.010297263582977103
0.6920692069206921,-0.021331345167235304
0.693069306930693,0.04139977840047958
0.6940694069406941,0.037997419982799666
0.695069506950695,-0.030186082489488564
0.6960696069606961,0.013631701172497906
0.697069706970697,-0.02853702977999293
0.6980698069806981,0.011784862350092705
0.699069906990699,0.024888547278130835
0.7000700070007001,0.06157856494583326
0.701070107010701,-0.06330125914672988
0.7020702070207021,0.046545773672014026
0.7030703070307031,-0.049408856505704084
0.7040704070407041,0.031219807558747144
0.7050705070507051,-8.805867558394481e-05
0.7060706070607061,-0.007169050201590368
0.7070707070707071,-0.04627102701864701
0.708070807080708,-0.0017587758235958922
0.7090709070907091,0.008832858744278874
0.71007100710071,-0.043418110399314466
0.7110711071107111,-0.0007042800811549716
0.712071207120712,-0.023733187997484164
0.7130713071307131,-0.002331686570332465
0.714071407140714,0.034745592367690245
0.7150715071507151,-0.023523035577437415
0.716071607160716,0.01739918589974503
0.7170717071707171,0.03590585836816915
0.7180718071807181,-0.017572550808306404
0.7190719071907191,0.009321562010764685
0.7200720072007201,0.006924553423140387
0.7210721072107211,-0.0019418699080035432
0.7220722072207221,-0.0021779233807034575
0.723072307230723,0.0036815103888525424
0.7240724072407241,0.0397723698963967
0.725072507250725,0.02675750372659222
0.7260726072607261,-0.02945252077936508
0.727072707270727,-0.06214075085468643
0.7280728072807281,-0.007944639835562914
0.729072907290729,-0.028662779570211162
0.7300730073007301,0.01262270681051197
0.731073107310731,0.0003144320433307496
0.7320732073207321,0.0011437265031782446
0.7330733073307331,-0.009484741188576038
0.7340734073407341,-0.03618422188977277
0.7350735073507351,-0.037530066817515556
0.7360736073607361,0.01182271004799744
0.7370737073707371,0.013430250385235638
0.738073807380738,0.043275007851620015
0.7390739073907391,0.02161025882730993
0.74007400740074,0.014265924169062846
0.7410741074107411,-0.060978113018445024
0.742074207420742,-0.025230137648336114
0.7430743074307431,0.0159046188954267
0.744074407440744,-0.0014304252288252401
0.7450745074507451,0.030012960006056986
0.746074607460746,-0.0009336175399992795
0.7470747074707471,-0.027224969181875256
0.7480748074807481,0.02386152393077922
0.7490749074907491,0.002031312610221266
0.7500750075007501,-0.0012517942665818762
0.7510751075107511,-0.01663570171425916
0.7520752075207521,0.0013848658403130493
0.753075307530753,0.008864431112646662
0.7540754075407541,0.0001402679713014893
0.755075507550755,0.0782172868485879
0.7560756075607561,0.03568470888259762
0.757075707570757,0.056463314252423506
0.7580758075807581,-0.06911863064074218
0.759075907590759,-0.0069006983923355835
0.7600760076007601,-0.021960609621234615
0.761076107610761,0.007376197705806846
0.7620762076207621,-0.04600245264221629
0.7630763076307631,0.0037676684394641904
0.7640764076407641,-0.011724215661290376
0.7650765076507651,-0.01037154196931511
0.7660766076607661,0.0006404069928955577
0.7670767076707671,-0.02052073635935443
0.768076807680768,-0.03173216972178081
0.7690769076907691,0.0471635884426986
0.77007700770077,0.03719234440298331
0.7710771077107711,0.03345131697437076
0.772077207720772,0.001913014340219878
0.7730773077307731,0.015304263521276906
0.774077407740774,0.005822801036394002
0.7750775077507751,0.029559628537960177
0.7760776077607761,-0.03959299694931944
0.7770777077707771,0.027685738996774043
0.7780778077807781,0.01668433657385915
0.7790779077907791,0.017408729593936058
0.7800780078007801,0.005567541410710624
0.7810781078107811,0.04804240271849294
0.7820782078207821,0.04799661151686254
0.7830783078307831,0.02541376175661288
0.7840784078407841,0.023752221096412465
0.785078507850785,0.002642502919796948
0.7860786078607861,-0.01018473694637238
0.787078707870787,0.006929581438347136
0.7880788078807881,-0.013960273678677844
0.789078907890789,-0.002898408622955586
0.7900790079007901,-0.029487934489960496
0.7910791079107911,0.010836165942919314
0.7920792079207921,-0.05143176738442093
0.7930793079307931,0.03309975254337999
0.7940794079407941,-0.026006091082885114
0.7950795079507951,-0.020502471536148564
0.7960796079607961,-0.01187775067034797
0.7970797079707971,0.004160015970342649
0.7980798079807981,0.003767006324053587
0.7990799079907991,-0.029824246040893416
0.8000800080008,-0.02144478169831663
0.8010801080108011,-0.015712300449470255
0.802080208020802,0.0327097035577293
0.8030803080308031,0.003127779700746545
0.804080408040804,0.007462074618234299
0.8050805080508051,-0.009795110433201375
0.8060806080608061,-0.06174860798446017
0.8070807080708071,0.02177525448282697
0.8080808080808081,0.01883359580563588
0.8090809080908091,0.033248446875427724
0.8100810081008101,-0.04889391956852419
0.8110811081108111,-0.02264585513043141
0.8120812081208121,-0.030202675168472047
0.8130813081308131,-0.03567647774757532
0.8140814081408141,0.0001502060209330787
0.815081508150815,0.03388487224532559
0.8160816081608161,0.019877488892393796
0.817081708170817,0.04557618258819093
0.8180818081808181,0.0333465484389554
0.819081908190819,-0.01572880111855656
0.8200820082008201,0.030849269121950615
0.8210821082108211,-0.021464984167055556
0.8220822082208221,-0.0507153416208475
0.8230823082308231,0.02485931882131352
0.8240824082408241,-0.013847205535676723
0.8250825082508251,0.06598963176709992
0.8260826082608261,0.001206731959367722
0.8270827082708271,0.015881069457657604
0.8280828082808281,0.03161640541274568
0.8290829082908291,0.012277538516871297
0.83008300830083,-0.03649334745924099
0.8310831083108311,-0.00973763524868527
0.832083208320832,0.06975714382347643
0.8330833083308331,0.007367293910319114
0.834083408340834,-0.05596678320937745
0.8350835083508351,-0.021167463376795776
0.8360836083608361,0.01172921459309312
0.8370837083708371,-0.03000704404926034
0.8380838083808381,-0.0009842359976421937
0.8390839083908391,0.0445941434328
0.8400840084008401,0.0643960093502476
0.8410841084108411,-0.023499029719689576
0.8420842084208421,-0.01690453857031054
0.8430843084308431,-0.010099575923392364
0.8440844084408441,0.0144081203655441
0.845084508450845,0.007781322625854332
0.8460846084608461,0.006201993759257423
0.847084708470847,-0.02730597700405284
0.8480848084808481,-0.02484912414127012
0.849084908490849,-0.07509720921875289
0.8500850085008501,0.033596442213616184
0.8510851085108511,-0.021045651607388485
0.8520852085208521,0.0018600598552425422
0.8530853085308531,0.014244354814071283
0.8540854085408541,-0.02051460908267044
0.8550855085508551,0.01195031897354732
0.8560856085608561,0.004369708232634757
0.8570857085708571,0.0007937688518938196
0.8580858085808581,0.006401911286005462
0.8590859085908591,-0.05557917506105645
0.86008600860086,-0.02122884439233577
0.8610861086108611,-0.01831872109419835
0.862086208620862,-0.048197905893281275
0.8630863086308631,-0.03552926915586837
0.8640864086408641,-0.041198401419858144
0.8650865086508651,-0.0021315795302969814
0.8660866086608661,-0.04855895144629509
0.8670867086708671,-0.0461789788339301
0.8680868086808681,0.1538240210695974
0.8690869086908691,0.49114404144040935
0.8700870087008701,0.9926196765865208
0.8710871087108711,0.254469215940902
0.8720872087208721,0.1673795244195706
0.8730873087308731,-0.039785172069312695
0.8740874087408741,0.0425539369964072
0.875087508750875,-0.03889965579321989
0.8760876087608761,0.0087530472426676
0.877087708770877,0.01757300920964971
0.8780878087808781,-0.011310466421441505
0.8790879087908791,0.020509962129005084
0.8800880088008801,0.036255648818483456
0.8810881088108811,0.008659412899552214
0.8820882088208821,-0.043207219828649994
0.8830883088308831,0.01914304138672145
0.8840884088408841,0.01590033411438252
0.8850885088508851,0.02502173612437429
0.8860886088608861,-0.014532500824356474
0.8870887088708871,-0.008835683271490721
0.8880888088808881,0.05400809443405553
0.8890889088908891,-0.03025375587284165
0.89008900890089,0.007235660936507576
0.8910891089108911,0.03600144570664453
0.892089208920892,0.014220202843021607
0.8930893089308931,-0.0021863401105504114
0.8940894089408941,0.023168283542090322
0.8950895089508951,0.026580600948190796
0.8960896089608961,0.007331200143593786
0.8970897089708971,0.0022353590514814672
0.8980898089808981,-0.010493350613216457
0.8990899089908991,0.04085523847548318
0.9000900090009001,0.04309865723889528
0.9010901090109011,-0.019055705559188583
0.9020902090209021,-0.042649021038303335
0.9030903090309031,-0.005800407007924236
0.9040904090409041,-0.0020807466344038143
0.905090509050905,0.02020328393359698
0.9060906090609061,-0.00954586665166838
0.907090709070907,-0.053986818381046034
0.9080908090809081,0.035827718900744404
0.9090909090909091,0.0014228600840805409
0.9100910091009101,-0.0006094471132091347
0.9110911091109111,-0.00933567599131427
0.9120912091209121,-0.02655423390933899
0.9130913091309131,-0.02497787786688014
0.9140914091409141,0.0073011192025974675
0.9150915091509151,-0.019133174809096338
0.9160916091609161,0.0004734242543568527
0.9170917091709171,-0.004913273865839077
0.9180918091809182,0.02331882342435441
0.9190919091909191,0.008636138647561707
0.92009200920092,-0.013092404891073514
0.9210921092109211,-0.0485587570900589
0.922092209220922,-0.027107813793726614
0.9230923092309231,0.0014497269900369185
0.9240924092409241,-0.00047359509079098464
0.9250925092509251,-0.014562065179404076
0.9260926092609261,0.030873818282906956
0.9270927092709271,0.006970715746016792
0.9280928092809281,-0.024818247957954627
0.9290929092909291,0.029882764631715172
0.9300930093009301,0.05239335324917837
0.9310931093109311,0.002111300309563825
0.9320932093209321,-0.0162690298863764
0.9330933093309332,0.05203164161556626
0.9340934093409341,-0.046677838330341365
0.935093509350935,-0.009595617805328176
0.9360936093609361,0.0296388918576524
0.9370937093709371,0.0316526501772649
0.9380938093809381,-0.009074060928709745
0.9390939093909391,0.0084316656556929
0.9400940094009401,0.0500784970003222
0.9410941094109411,0.029106526949525435
0.9420942094209421,-0.00604138835261697
0.9430943094309431,-0.011107851428257867
0.9440944094409441,-0.014663114916463053
0.9450945094509451,0.03325759250730963
0.9460946094609461,-0.007463480577284848
0.9470947094709471,0.0011681116321473237
0.9480948094809482,-0.010182236347334743
0.9490949094909491,0.0023511909268541823
0.95009500950095,0.017486379683142147
0.9510951095109511,-0.0006050178676760173
0.9520952095209521,-0.015213940043076536
0.9530953095309531,-0.009615056324175862
0.9540954095409541,-0.020056093333222273
0.9550955095509551,-0.012921135117229301
0.9560956095609561,0.027766506262932773
0.9570957095709571,-0.003328501887900997
0.9580958095809581,0.03376325299645406
0.9590959095909591,0.02154736004587183
0.9600960096009601,0.002040222541579147
0.9610961096109611,0.023920583854776384
0.9620962096209621,-0.027790725107014837
0.9630963096309632,0.011550924780957398
0.9640964096409641,-0.020848141590558686
0.965096509650965,-0.03761116429781006
0.9660966096609661,-0.04782607338295735
0.9670967096709671,0.011775778913264473
0.9680968096809681,-0.01573885820805587
0.9690969096909691,-0.023277059269741066
0.9700970097009701,-0.03171344514081106
0.9710971097109711,-0.0015259224709804915
0.9720972097209721,0.009174050872628715
0.9730973097309731,0.0218985765809378
0.9740974097409741,-0.012536411404881067
0.9750975097509751,-0.0794546181084773
0.9760976097609761,-0.04072219638373175
0.9770977097709771,0.030241237248089612
0.9780978097809782,-0.018539427397802778
0.9790979097909791,-0.03806237740355926
0.98009800980098,0.033011883847514994
0.9810981098109811,0.0464960152000969
0.9820982098209821,0.03352939620969943
0.9830983098309831,0.035659558032386816
0.9840984098409841,-0.03450710646561233
0.9850985098509851,-0.054335701668858545
0.9860986098609861,-0.0009219710185602488
0.9870987098709871,0.052786078531078896
0.9880988098809881,-0.020022293962725767
0.9890989098909891,-0.024023232157841155
0.9900990099009901,-0.004761759034017419
0.9910991099109911,0.008739700392164363
0.9920992099209921,-0.017170821769172482
0.9930993099309932,0.01794249214230837
0.9940994099409941,-0.0009347526492307025
0.995099509950995,-0.026701179068232432
0.9960996099609961,-0.007684030421823604
0.9970997099709971,-0.020782611151448156
0.9980998099809981,-0.02597905702263012
0.9990999099909991,0.05167081530415428
1.000100010001,-0.0066764330572676245
1.001100110011001,0.048454186058448354
1.0021002100210021,0.013083487223169621
1.0031003100310032,-0.020284778451319815
1.004100410041004,0.022800560266948017
1.005100510051005,-0.02459704190444694
1.0061006100610062,-0.014662769632708727
1.0071007100710072,0.007500191951040452
1.008100810081008,0.0003562543633691515
1.009100910091009,0.020158529919066324
1.0101010101010102,0.030227168181883465
1.011101110111011,0.02398411172630095
1.012101210121012,0.002269574463866131
1.0131013101310131,-0.02564201798651829
1.0141014101410142,0.03587141007476345
1.015101510151015,-0.029676027407174507
1.016101610161016,-0.022736062638388163
1.0171017101710171,-0.03863213629528128
1.0181018101810182,-0.0024366248709862728
1.019101910191019,-0.030095505004863448
1.02010201020102,0.016999620402471417
1.0211021102110212,-0.03279941715098826
1.0221022102210222,0.050844222975836524
1.023102310231023,0.020294686027003957
1.024102410241024,-0.05970951022709477
1.0251025102510252,-0.03336565913853929
1.026102610261026,0.016619733901685082
1.027102710271027,0.00031490743199422366
1.0281028102810281,0.01371228490384939
1.0291029102910292,-0.0035637799469968165
1.03010301030103,0.0319624475127489
1.031103110311031,0.007218418123042136
1.0321032103210321,0.011276824794571582
1.0331033103310332,-0.04248532314263446
1.034103410341034,0.009834409772992518
1.035103510351035,-0.002196315510609424
1.0361036103610362,0.01264504263205086
1.0371037103710372,0.010148529566235654
1.038103810381038,-0.032968654798985114
1.039103910391039,0.040229751463769524
1.0401040104010402,-0.0064838308179780094
1.041104110411041,-0.011431468416410167
1.042104210421042,-0.004522491222141226
1.0431043104310431,0.048462426072194566
1.0441044104410442,-0.05105665410352938
1.045104510451045,-0.04232809677714787
1.046104610461046,-0.031307544262415166
1.0471047104710471,-0.036249776416410216
1.0481048104810482,0.011966104896654391
1.049104910491049,0.002759991260080847
1.05010501050105,-0.01481065928880477
1.0511051105110512,0.015937620120180036
1.0521052105210522,0.017780098477236807
1.053105310531053,-0.021437758526298662
1.054105410541054,-0.01434776747588853
1.0551055105510552,-0.01960032987656921
1.056105610561056,-0.02645436516427547
1.057105710571057,-0.056760513236014803
1.0581058105810581,-0.06652327736495767
1.0591059105910592,0.02361905053627464
1.06010601060106,-0.03480234055453656
1.061106110611061,0.016884080131021315
1.0621062106210621,-0.04582858391970925
1.0631063106310632,0.04475775340601498
1.064106410641064,0.03700960465592606
1.065106510651065,-0.026594448535125104
1.0661066106610662,-0.039715824425340523
1.0671067106710672,-0.003273614381567888
1.068106810681068,-0.003036274460929139
1.0691069106910691,0.03179999530652346
1.0701070107010702,-0.01902264022428311
1.071107110711071,0.0021207810732070116
1.072107210721072,0.05857257893338967
1.0731073107310731,0.04994160212869293
1.0741074107410742,0.0009265940315804727
1.075107510751075,0.03874450619764692
1.076107610761076,-0.06703385306674634
1.0771077107710771,-0.017949159395486428
1.0781078107810782,0.03771432785241074
1.079107910791079,-0.05451071496680956
1.08010801080108,-0.026477333464449433
1.0811081108110812,0.07155530651850942
1.0821082108210822,0.026678619918557626
1.083108310831083,-0.002620709395675711
1.0841084108410841,-0.04656075827959655
1.0851085108510852,-0.015175382671140752
1.086108610861086,-0.01896324259091169
1.087108710871087,0.008460286177118232
1.0881088108810881,0.006154276811870061
1.0891089108910892,-0.02648144409033842
1.09010901090109,-0.01853765610994316
1.091109110911091,0.0034458396206648047
1.0921092109210921,0.014499467409215773
1.0931093109310932,0.02618921234237788
1.094109410941094,0.042503697173593084
1.095109510951095,0.03449998618029086
1.0961096109610962,0.04583448698727119
1.0971097109710972,-0.0010776630118514749
1.098109810981098,-0.017774875187150367
1.0991099109910991,-0.016218520823572644
1.1001100110011002,0.02152881299591449
1.101110111011101,0.018696702560706643
1.102110211021102,-0.011046228031646286
1.1031103110311031,0.015572752949787268
1.1041104110411042,-0.007917496989670673
1.105110511051105,0.018230739641691397
1.106110611061106,0.02556757444656739
1.1071107110711071,-0.011218875307939472
1.1081108110811082,-0.04683467434982906
1.109110911091109,-0.0035499976218635013
1.11011101110111,0.01363491460995742
1.1111111111111112,-0.04160924992912529
1.1121112111211122,-0.026832311745252548
1.113111311131113,0.03493450866384018
1.1141114111411141,0.008344669482182312
1.1151115111511152,-0.02247618482063928
1.116111611161116,0.014828797397200737
1.117111711171117,0.027554808371876953
1.1181118111811181,0.01995268208679639
1.1191119111911192,-0.02061680094863032
1.12011201120112,0.04141304516816838
1.121112111211121,0.0032859104740882265
1.1221122112211221,-0.02400930642866091
1.1231123112311232,0.007593370160881264
1.124112411241124,0.08127479996208546
1.125112511251125,0.49216839870188506
1.1261126112611262,1.023177234673542
1.1271127112711272,0.2572286218212815
1.128112811281128,0.11099706092561533
1.1291129112911291,-0.010748447016410803
1.1301130113011302,0.010540406617514994
1.131113111311131,-0.009063062666785927
1.132113211321132,0.01038310532166305
1.1331133113311331,-0.028605110035414487
1.1341134113411342,-0.010548118302257267
1.135113511351135,-0.0027090576643717143
1.136113611361136,0.02949916792864984
1.1371137113711371,-0.026836234916967704
1.1381138113811382,-0.024832947876817384
1.139113911391139,0.01470227312129845
1.14011401140114,-0.03858941636273791
1.1411141114111412,0.0060221115472716595
1.1421142114211422,0.02133297675062271
1.143114311431143,-0.0026291198876419396
1.1441144114411441,0.0752651518452466
1.1451145114511452,0.0005358783476307748
1.146114611461146,0.0032228274023442696
1.147114711471147,0.027606948105144084
1.1481148114811481,0.03633488457868986
1.1491149114911492,0.01146376419331004
1.15011501150115,0.029283200901569717
1.151115111511151,-0.02304655485987702
1.1521152115211521,-0.014252930844624895
1.1531153115311532,0.005518865684968817
1.154115411541154,0.0028701496030216532
1.155115511551155,-0.006180455392132383
1.1561156115611562,0.013632772794894209
1.1571157115711572,-0.012360901967282598
1.158115811581158,-0.013748736760124164
1.1591159115911591,-0.008711923528267641
1.1601160116011602,0.10048113861268763
1.161116111611161,-0.012247829861849809
1.162116211621162,-0.016758062568125686
1.1631163116311631,-0.02865591508938306
1.1641164116411642,-0.004607465614152999
1.165116511651165,0.05707575456479842
1.166116611661166,0.0286457289444188
1.1671167116711672,0.012803604208059318
1.1681168116811682,0.022624438954702328
1.169116911691169,0.010460012981415428
1.17011701170117,-0.032601755332290726
1.1711171117111712,0.04365972675684117
1.1721172117211722,-0.04544816203156859
1.173117311731173,0.01542805621605359
1.1741174117411741,0.03865061543043564
1.1751175117511752,0.009207042076555552
1.176117611761176,0.03424465274980031
1.177117711771177,0.03303825853601371
1.1781178117811781,0.045716416967953366
1.1791179117911792,0.00214554970162419
1.18011801180118,0.024709098151714185
1.181118111811181,-0.0012330958450129867
1.1821182118211822,-0.0069937827988785315
1.1831183118311832,0.05271674068205109
1.184118411841184,-0.03518978667409003
1.185118511851185,-0.05280441569423402
1.1861186118611862,0.007714975266364538
1.1871187118711872,-0.0008878856364474042
1.188118811881188,0.006815797557413579
1.1891189118911891,0.015371561347473243
1.1901190119011902,-0.008351566535758756
1.191119111911191,0.0028641297905638028
1.192119211921192,0.007039924799602129
1.1931193119311931,-0.04592434517455422
1.1941194119411942,-0.026275474211567815
1.195119511951195,-0.013219981841051796
1.196119611961196,0.021682604830206783
1.1971197119711972,-0.025767250422020507
1.1981198119811982,-0.06510437530579222
1.199119911991199,0.020905063151373048
1.2001200120012,0.022154554023847726
1.2011201120112012,0.02314812624208716
1.2021202120212022,-0.011085114719552338
1.203120312031203,-0.025064700602051744
1.2041204120412041,-0.021112917733221825
1.2051205120512052,-0.006307918819684195
1.206120612061206,0.019010104653876893
1.207120712071207,0.05183501016521158
1.2081208120812081,0.009090151964287616
1.2091209120912092,-0.011964760972390914
1.21012101210121,-0.030595063227221227
1.211121112111211,-0.004824314578509173
1.2121212121212122,-0.029335423534330777
1.2131213121312132,-0.01614577623305058
1.214121412141214,-0.024354188297941795
1.215121512151215,0.007058170239599411
1.2161216121612162,0.008302565925954181
1.2171217121712172,-0.012012922920681906
1.218121812181218,-0.025863506096043716
1.2191219121912191,-0.04832195860008326
1.2201220122012202,0.024226574351349194
1.221122112211221,0.050029943888850306
1.222122212221222,0.0015284571030287875
1.2231223122312231,-0.01141325719598436
1.2241224122412242,-0.008871347122370641
1.225122512251225,-0.05938716126159962
1.226122612261226,0.08417982371711312
1.2271227122712272,0.013019992724110665
1.2281228122812282,-0.026724208224532812
1.229122912291229,-0.01611742083612243
1.2301230123012301,0.034023743691598406
1.2311231123112312,0.01846021476278096
1.2321232123212322,0.0042949133234204484
1.233123312331233,-0.00761915013456518
1.2341234123412341,0.019882005924076927
1.2351235123512352,-0.010366173233319143
1.236123612361236,0.015300743381621502
1.237123712371237,0.00497936881944846
1.2381238123812381,-0.022882447118298562
1.2391239123912392,0.02073997292685444
1.24012401240124,-0.01480887414221529
1.241124112411241,0.029096837937062716
1.2421242124212422,0.0065131898377038915
1.2431243124312432,-0.016473614996743585
1.244124412441244,0.010836013774494481
1.2451245124512451,-0.11470982348660673
1.2461246124612462,0.03501458744208357
1.2471247124712472,-0.012233220369702659
1.248124812481248,0.017546340189750518
1.2491249124912491,-0.017347973785797863
1.2501250125012502,0.053574644518698845
1.251125112511251,-0.03286282836562654
1.252125212521252,0.0018592640826233975
1.2531253125312531,-0.03600385275502844
1.2541254125412542,-0.03578645764199538
1.255125512551255,0.02711204091103548
1.256125612561256,-0.013350184100314232
1.2571257125712572,-0.002090618827152208
1.2581258125812582,-0.020121404083924238
1.259125912591259,0.015722748313413658
1.2601260126012601,-0.02891820252264862
1.2611261126112612,-0.011849618703410414
1.2621262126212622,0.032744799593092254
1.263126312631263,0.014322533148760473
1.2641264126412641,-0.019917112836796497
1.2651265126512652,-0.009830314145423354
1.266126612661266,-0.0036811972840731246
1.267126712671267,0.020378419388743522
1.2681268126812681,-0.036294143257485596
1.2691269126912692,-0.010595635125538216
1.27012701270127,0.05683175400958352
1.271127112711271,-0.02591499129979224
1.2721272127212722,0.011229001522585418
1.2731273127312732,0.00810725088470068
1.274127412741274,0.005968298133463524
1.2751275127512751,0.010404141265558225
1.2761276127612762,0.011754117309048934
1.2771277127712772,0.012553894077576101
1.278127812781278,0.06514656390906072
1.2791279127912791,0.062350911777421664
1.2801280128012802,0.03567335548753101
1.281128112811281,-0.018083669635543427
1.282128212821282,0.01027021664016112
1.2831283128312831,0.028601232566197954
1.2841284128412842,-0.05325104303765659
1.285128512851285,0.03063822366540908
1.286128612861286,0.03868667809898006
1.2871287128712872,-0.021845719047512115
1.2881288128812882,-0.033335746174325095
1.289128912891289,-0.04765285135472919
1.2901290129012901,0.03783943992783537
1.2911291129112912,0.02877051126413506
1.2921292129212922,-0.029629368641907735
1.293129312931293,-0.01152481343875893
1.2941294129412941,-0.016141527176360717
1.2951295129512952,0.018651267377063796
1.296129612961296,-0.06391399429314054
1.297129712971297,0.003915528447759041
1.2981298129812981,-0.0030298642594374305
1.2991299129912992,-0.0052642106352216115
1.3001300130013,-0.012884470316333977
1.301130113011301,-0.03682999908607977
1.3021302130213022,0.04917520092427351
1.3031303130313032,0.027718110904770544
1.304130413041304,-0.044053934124464886
1.3051305130513051,0.023236235759338624
1.3061306130613062,0.07302400751780078
1.3071307130713072,0.03770637451997776
1.308130813081308,-0.02466727960148405
1.3091309130913091,-0.035830052217412485
1.3101310131013102,-0.027687048517471165
1.311131113111311,-0.028104833785955106
1.312131213121312,-0.004820079607776237
1.3131313131313131,0.07581501478073042
1.3141314131413142,-0.007136386284423429
1.315131513151315,0.043553398930172994
1.316131613161316,-0.0011567851443266808
1.3171317131713172,0.07170194742227705
1.3181318131813182,0.008547213471745621
1.319131913191319,-0.02274837597824524
1.3201320132013201,0.04175156323247024
1.3211321132113212,0.004994471097056052
1.3221322132213222,-0.0015492160382197763
1.323132313231323,0.07269401529524937
1.3241324132413241,0.01561594219161436
1.3251325132513252,-0.004508023389024272
1.326132613261326,0.005932930612199255
1.327132713271327,0.043894221813879405
1.3281328132813282,0.04631498151821674
1.3291329132913292,0.020814461843167188
1.33013301330133,-0.039013290889204785
1.331133113311331,-0.01635773480239016
1.3321332133213322,-0.024427361375642966
1.3331333133313332,-0.009034480031732807
1.334133413341334,0.06305224850836876
1.3351335133513351,0.01385190778600457
1.3361336133613362,0.0017082559481573893
1.3371337133713372,0.04696656203101737
1.338133813381338,0.006333413902079774
1.3391339133913391,0.03246782227464867
1.3401340134013402,0.030450698348834702
1.341134113411341,-0.014591237239378283
1.342134213421342,-0.028563319160743755
1.3431343134313432,-0.09986357606734451
1.3441344134413442,-0.012787791130069195
1.345134513451345,0.016575666643919476
1.346134613461346,-0.018113555396379453
1.3471347134713472,0.011648260987085981
1.3481348134813482,0.02471376333053067
1.349134913491349,-0.029098284400626624
1.3501350135013501,-0.026452159190992815
1.3511351135113512,0.041486985502405045
1.3521352135213522,0.0267367465907959
1.353135313531353,-0.02266861860581553
1.3541354135413541,-0.008835861396893336
1.3551355135513552,0.0455274301768504
1.356135613561356,0.04258459475364469
1.357135713571357,-0.03615909042619903
1.3581358135813582,0.005517236623366024
1.3591359135913592,0.05173023599540808
1.36013601360136,-0.031287295145645475
1.361136113611361,-0.02132930717719902
1.3621362136213622,-0.0009243363281705039
1.3631363136313632,0.0070162006141084084
1.364136413641364,-0.0051874917517272506
1.3651365136513651,-0.02721587365162011
1.3661366136613662,-0.04401755980026946
1.3671367136713672,0.016984549631106016
1.368136813681368,0.02599456997926115
1.3691369136913691,0.01575584305506108
1.3701370137013702,0.009333800856480246
1.371137113711371,0.054758045571242316
1.372137213721372,-0.004190322141210458
1.3731373137313732,0.03590409297801169
1.3741374137413742,0.018692712252605617
1.375137513751375,0.039347913564365386
1.376137613761376,-0.0017256974245220083
1.3771377137713772,0.03095385356059994
1.3781378137813782,-0.028527744637449035
1.379137913791379,0.012914157290074358
1.3801380138013801,0.05883783723460844
1.3811381138113812,0.5264400988692964
1.3821382138213822,0.993973722013991
1.383138313831383,0.285599141320326
1.3841384138413841,0.050108059066805266
1.3851385138513852,0.049677147661157474
1.386138613861386,-0.03265997504437427
1.387138713871387,0.014634761313427096
1.3881388138813882,-0.0030497338471052846
1.3891389138913892,-0.010351307940507093
1.39013901390139,-0.0015902796068191709
1.3911391139113911,-0.01555344392950176
1.3921392139213922,-0.0013801251951129532
1.3931393139313932,0.014477299565338605
1.394139413941394,-0.023676726318991037
1.3951395139513951,-0.00754001107721368
1.3961396139613962,0.017895736071309766
1.3971397139713972,0.011309265047868371
1.398139813981398,-0.0118429811568891
1.3991399139913991,-0.007717059075467703
1.4001400140014002,0.03644744034452117
1.401140114011401,0.02206547589424401
1.402140214021402,0.04767746742840814
1.4031403140314032,0.012913299123236022
1.4041404140414042,-0.04417634894458532
1.405140514051405,0.0012669513982061361
1.4061406140614061,0.026715767074150985
1.4071407140714072,-0.01478083085013392
1.4081408140814082,0.02641403005198639
1.409140914091409,-0.03564603916926305
1.4101410141014101,0.013588089848519372
1.4111411141114112,0.08650602231901726
1.4121412141214122,0.02352157750126145
1.413141314131413,-0.002437090016982863
1.4141414141414141,0.024122596196702543
1.4151415141514152,-0.0022760061196224605
1.416141614161416,0.0007707324614272511
1.417141714171417,-0.0009307799911260938
1.4181418141814182,0.008764234220300334
1.4191419141914192,0.01863608551586708
1.42014201420142,0.0026879022674717386
1.4211421142114211,0.004466597698039132
1.4221422142214222,0.017802927910928718
1.4231423142314232,0.04376162997534292
1.424142414241424,-0.0033270784168723134
1.4251425142514251,0.005041205570453781
1.4261426142614262,-0.024580653900917286
1.4271427142714272,-0.022660689449568318
1.428142814281428,0.025947449489959702
1.4291429142914291,0.035726109126739757
1.4301430143014302,0.00012093678672045973
1.431143114311431,-0.011037879605260871
1.432143214321432,0.04735606404234665
1.4331433143314332,0.047669684474284234
1.4341434143414342,0.020405501660159427
1.435143514351435,-0.02567287086588369
1.4361436143614361,0.040718294608367324
1.4371437143714372,-0.016497953465074117
1.4381438143814382,0.04470434087296487
1.439143914391439,0.0493513433965245
1.4401440144014401,0.010371797896218784
1.4411441144114412,-0.01295138397739366
1.4421442144214422,-0.0007972062061818927
1.443144314431443,0.011126396851076917
1.4441444144414441,-0.05030844441384232
1.4451445144514452,0.0026089151973242766
1.446144614461446,-0.02881763594507234
1.447144714471447,0.019790504855546877
1.4481448144814482,-0.02434006123656545
1.4491449144914492,-0.07132649606655399
1.45014501450145,0.0005342010068254821
1.4511451145114511,0.015095181877543695
1.4521452145214522,0.020038914204656262
1.4531453145314532,0.02716751414454365
1.454145414541454,0.04280960221986855
1.4551455145514551,-0.0338130633129232
1.4561456145614562,-0.024872747256555725
1.4571457145714573,0.014247295775677737
1.458145814581458,0.006410668990953126
1.4591459145914591,-0.04742354275691582
1.4601460146014602,0.0038388698589809913
1.461146114611461,-0.025875507576268254
1.462146214621462,-0.00728395675768536
1.4631463146314632,-0.024527879953037752
1.4641464146414642,0.011460315298767565
1.465146514651465,-0.026408043530362014
1.4661466146614661,0.029311941263855758
1.4671467146714672,-0.019535725276817514
1.4681468146814682,0.026813555740370143
1.469146914691469,0.015631636381617596
1.4701470147014701,0.005374367218502242
1.4711471147114712,-0.03576154549859748
1.4721472147214723,-0.05635835700440535
1.473147314731473,-0.015388448004371565
1.4741474147414741,0.022161363863242065
1.4751475147514752,0.00596370829718365
1.476147614761476,-0.043674042128224594
1.477147714771477,0.010467917914965966
1.4781478147814782,0.004655218353294801
1.4791479147914792,0.03159675636996469
1.48014801480148,0.02684489994420714
1.4811481148114811,0.022820117598085114
1.4821482148214822,-0.006346736146732475
1.4831483148314832,-0.03653481873815163
1.484148414841484,-0.020666204827076557
1.4851485148514851,0.04682957465901845
1.4861486148614862,-0.008065971938245192
1.4871487148714873,-0.006066978471655791
1.488148814881488,-0.026324126135657176
1.4891489148914892,-0.0003453361878217933
1.4901490149014902,0.04699224536002983
1.491149114911491,-0.006628692876574361
1.492149214921492,0.04158634634107466
1.4931493149314932,0.006122049805865043
1.4941494149414942,-0.011810108740338153
1.495149514951495,-0.03619321935694105
1.4961496149614961,0.018801893789410034
1.4971497149714972,0.01186045926972288
1.4981498149814982,-0.04312409870440854
1.499149914991499,-0.05232683640132749
1.5001500150015001,0.056594387282642725
1.5011501150115012,0.028095841957372893
1.5021502150215023,-0.018396587215356308
1.503150315031503,-0.026077556285825778
1.5041504150415042,0.02614429621016037
1.5051505150515052,-0.002741058132161533
1.506150615061506,0.02091755354711609
1.507150715071507,-0.0014548825498128862
1.5081508150815082,0.0077752060289049225
1.5091509150915092,-0.011965238870191281
1.51015101510151,0.019243114967869672
1.5111511151115111,-0.02342616682554136
1.5121512151215122,-0.05347034491160824
1.5131513151315132,-0.04528238291454397
1.514151415141514,0.011955196837488588
1.5151515151515151,-0.03619833574392582
1.5161516151615162,-0.000216366972161826
1.5171517151715173,0.041736000999626176
1.518151815181518,-0.014509748171083392
1.5191519151915192,-0.03801389452430323
1.5201520152015202,0.02497709872538521
1.521152115211521,0.011863742373358126
1.522152215221522,0.037047875067996505
1.5231523152315232,-0.0038977145195522546
1.5241524152415242,-0.019055636416758476
1.525152515251525,-0.001354115668077907
1.5261526152615261,-0.011664797834681214
1.5271527152715272,0.005421932698211824
1.5281528152815282,-0.010761785835440095
1.529152915291529,-0.004668594854310899
1.5301530153015301,0.016730230808955124
1.5311531153115312,0.0028175671197173155
1.5321532153215323,0.00799427991845823
1.533153315331533,0.027377923991981055
1.5341534153415342,-0.011386325017523843
1.5351535153515352,-0.021683037674675835
1.536153615361536,-0.0008453856321057326
1.537153715371537,-0.003115815235545571
1.5381538153815382,-0.038018244255741296
1.5391539153915392,-0.009784559698396344
1.54015401540154,0.015435214453851319
1.5411541154115411,0.022611715816022095
1.5421542154215422,0.0023503454138131606
1.5431543154315432,0.035659964432781154
1.544154415441544,-0.02506674955721335
1.5451545154515451,-0.06551870177738985
1.5461546154615462,-0.01584844391328247
1.5471547154715473,-0.03515274057908061
1.548154815481548,-0.025683331846758018
1.5491549154915492,-0.02842402088744371
1.5501550155015502,-0.017421036622715547
1.5511551155115513,-0.01732408134443937
1.5521552155215521,-0.025768308256213568
1.5531553155315532,0.0467885091749364
1.5541554155415542,0.05007746644652539
1.555155515551555,0.009227862436379965
1.5561556155615561,0.013261222041907595
1.5571557155715572,-0.03260169186104489
1.5581558155815582,-0.017783340650199164
1.559155915591559,0.01557504094863673
1.5601560156015601,-0.05520686629126368
1.5611561156115612,0.03669621925662046
1.5621562156215623,-0.03517186277634079
1.563156315631563,0.03155754735313834
1.5641564156415642,0.01599401572799402
1.5651565156515652,0.013260032012168679
1.5661566156615663,0.018354166714191957
1.5671567156715671,0.03491186083722786
1.5681568156815682,0.015726372363582708
1.5691569156915692,0.05312768844852894
1.57015701570157,-0.0004990075877862398
1.5711571157115711,-0.03972476587475002
1.5721572157215722,0.041014036830144304
1.5731573157315732,0.047595686731317574
1.574157415741574,0.02416401673371146
1.5751575157515751,-0.019876747580251843
1.5761576157615762,-0.03743664711797406
1.5771577157715773,0.012353025591808856
1.578157815781578,-0.02865119866783617
1.5791579157915792,0.05116594948527678
1.5801580158015802,0.016820009623202934
1.5811581158115813,0.00797106456199777
1.5821582158215821,-0.00493131901350004
1.5831583158315832,-0.04063500248661509
1.5841584158415842,0.023097479237163952
1.585158515851585,-0.006594056449528172
1.5861586158615861,0.003964755803177916
1.5871587158715872,-0.023384964849665214
1.5881588158815882,-0.018383547776924945
1.589158915891589,0.030588150938111056
1.5901590159015901,-0.0007264402366002306
1.5911591159115912,-0.010242058941828893
1.5921592159215923,0.006621959316028149
1.593159315931593,0.042650599011659775
1.5941594159415942,0.039979296867637716
1.5951595159515952,-0.029532886126274496
1.5961596159615963,0.03212504287201401
1.5971597159715971,0.01887182268118695
1.5981598159815982,0.00912865571009054
1.5991599159915992,0.007285746251163646
1.6001600160016,0.0010096904322113537
1.6011601160116011,-0.011201594708615733
1.6021602160216022,0.014281818355153457
1.6031603160316032,0.006410212426755075
1.604160416041604,-0.020222697031150726
1.6051605160516051,0.03494173467353263
1.6061606160616062,0.01727905839523808
1.6071607160716073,0.0645968243751093
1.608160816081608,0.03141408301302857
1.6091609160916092,0.025379424974375255
1.6101610161016102,-0.013298093290054028
1.6111611161116113,-0.004178424450444787
1.6121612161216121,0.05607857491390464
1.6131613161316132,0.02080343853544818
1.6141614161416142,0.05985291724407282
1.615161516151615,-0.01226335787514558
1.6161616161616161,0.0033693078679652108
1.6171617161716172,0.001797746002368567
1.6181618161816183,-0.03219139867981395
1.619161916191619,0.022803978038068166
1.6201620162016201,-0.020884139118487775
1.6211621162116212,-0.011182114963491297
1.6221622162216223,-0.014703482817825604
1.623162316231623,0.04751117427913111
1.6241624162416242,0.01899365748788726
1.6251625162516252,0.04007610068511918
1.6261626162616263,0.022582970186162257
1.6271627162716271,-0.011504840484869754
1.6281628162816282,0.03206153161578856
1.6291629162916292,-0.05863034019286651
1.63016301630163,0.006419469178458006
1.6311631163116311,-0.017799536217566924
1.6321632163216322,-0.03144804316560698
1.6331633163316333,-0.006600660476186785
1.634163416341634,0.03827469360793664
1.6351635163516351,-0.030316550067965634
1.6361636163616362,0.08816816720653925
1.6371637163716373,0.49852605674095785
1.638163816381638,0.9685223399787612
1.6391639163916392,0.24481877593395962
1.6401640164016402,0.12110891069472632
1.6411641164116413,0.00032769412150341335
1.6421642164216421,-0.03159738489557051
1.6431643164316432,-0.009163566378112694
1.6441644164416442,0.0011260185762626302
1.645164516451645,-0.04122374704946711
1.6461646164616461,0.022722044586068024
1.6471647164716472,-0.05334313714726784
1.6481648164816483,0.03370471061437823
1.649164916491649,0.029823019463901587
1.6501650165016502,-0.018337449191682006
1.6511651165116512,-0.02051570583731385
1.6521652165216523,0.02336273155731123
1.653165316531653,-0.013037881143564434
1.6541654165416542,-0.0039089169103386215
1.6551655165516552,-0.04736751005156273
1.6561656165616563,-0.017015685978395086
1.6571657165716571,0.056030892427574364
1.6581658165816582,0.015936127169843713
1.6591659165916592,0.04048826948601256
1.66016601660166,0.08215859987527607
1.6611661166116611,0.005117617350631139
1.6621662166216622,0.027968314935965306
1.6631663166316633,0.02870842913974518
1.664166416641664,-0.005663748589633549
1.6651665166516652,0.032997081110939484
1.6661666166616662,0.020331451806137227
1.6671667166716673,-0.03283712322186586
1.668166816681668,-0.000596442523646226
1.6691669166916692,-0.025969473646147035
1.6701670167016702,-0.04859910334436622
1.6711671167116713,0.028550004706520568
1.6721672167216721,0.006140457538696016
1.6731673167316732,-0.028905779976850482
1.6741674167416742,-0.014406844266933548
1.675167516751675,-0.012363714604393096
1.6761676167616761,-0.0009573524345868034
1.6771677167716772,0.007392502098430124
1.6781678167816783,-0.012381576100536116
1.679167916791679,0.03187458684681428
1.6801680168016802,0.0771434522223752
1.6811681168116812,-0.029549198319523084
1.6821682168216823,0.025431321908045475
1.683168316831683,-0.02660147861669371
1.6841684168416842,0.02891376675562516
1.6851685168516852,0.02956975428689644
1.6861686168616863,0.05126685435987945
1.6871687168716871,0.041336335994313925
1.6881688168816882,0.007494430261717598
1.6891689168916892,0.026365493447450792
1.69016901690169,-0.032105632303000196
1.6911691169116911,-0.011518706891558442
1.6921692169216922,0.025803505430770254
1.6931693169316933,-0.015504725749034233
1.694169416941694,-0.013262846871161237
1.6951695169516952,0.012900409960352488
1.6961696169616962,-0.017820753677595398
1.6971697169716973,0.007245542508706406
1.698169816981698,0.027626871438417532
1.6991699169916992,-0.020988163666470737
1.7001700170017002,-0.025353290662041228
1.7011701170117013,-0.013378509466478795
1.7021702170217021,0.005448086937400076
1.7031703170317032,0.015636174557513535
1.7041704170417042,-0.06857997096299082
1.705170517051705,0.053070888094116586
1.7061706170617061,0.04617853710629814
1.7071707170717072,0.0060160120075063266
1.7081708170817083,-0.05805714651844777
1.709170917091709,0.05168549120124092
1.7101710171017102,0.00559914666591006
1.7111711171117112,-0.03444330957757319
1.7121712171217123,-0.05284006571788805
1.7131713171317131,0.019217744244904758
1.7141714171417142,0.0035812995266221227
1.7151715171517152,-0.010607953940003358
1.7161716171617163,-0.001843215448448112
1.7171717171717171,-0.00732130201533932
1.7181718171817182,-0.005805537035209528
1.7191719171917192,-0.011390176389470867
1.72017201720172,-0.009696949776029617
1.7211721172117211,-0.010303922150506186
1.7221722172217222,-0.02469729259348442
1.7231723172317233,-0.024229976855166493
1.724172417241724,0.036857943200155334
1.7251725172517252,0.007363209837678516
1.7261726172617262,0.05346534108569255
1.7271727172717273,-0.047489163642555995
1.7281728172817281,-0.01483650150538188
1.7291729172917292,0.008038266101048306
1.7301730173017302,-0.02844685781874021
1.7311731173117313,0.013236155477760964
1.7321732173217321,0.006750025312431647
1.7331733173317332,0.0053872428141632815
1.7341734173417342,0.028074552695629848
1.735173517351735,0.003720512254906439
1.7361736173617361,-0.020411012583540455
1.7371737173717372,-0.0070807307165870114
1.7381738173817383,0.040910356170038596
1.739173917391739,0.009743948536276976
1.7401740174017402,-0.006107768628482946
1.7411741174117412,0.017571646282379016
1.7421742174217423,0.019271330477865146
1.7431743174317431,-0.044216203191990926
1.7441744174417442,0.0022499024938252717
1.7451745174517452,0.04727551593604424
1.7461746174617463,0.01376833873816569
1.7471747174717471,0.04136877987013357
1.7481748174817482,-0.04113642489556272
1.7491749174917492,-0.012519078276765822
1.75017501750175,0.017382760106248896
1.7511751175117511,-0.011878629366129389
1.7521752175217522,-0.014656877593252886
1.7531753175317533,-0.018892086523988688
1.754175417541754,0.02985264872587942
1.7551755175517552,-0.031550370146847084
1.7561756175617562,0.04068745095649564
1.7571757175717573,-0.02343141784058685
1.7581758175817581,-0.05478375365085494
1.7591759175917592,0.01945854733913516
1.7601760176017602,0.001001028029505951
1.7611761176117613,0.057066790623419544
1.7621762176217621,0.02105923555437381
1.7631763176317632,-0.03213304319165244
1.7641764176417642,0.01131904417382501
1.765176517651765,0.024503718879767194
1.7661766176617661,0.02898460031956934
1.7671767176717672,-0.007517201505661296
1.7681768176817683,0.025203150856051595
1.769176917691769,-0.06010497107086801
1.7701770177017702,0.028466682569458154
1.7711771177117712,-0.0411012650727789
1.7721772177217723,0.02683470278622276
1.7731773177317731,0.04776070754213223
1.7741774177417742,0.03406966431446489
1.7751775177517752,-0.006100335883949965
1.7761776177617763,-0.0031244817105436406
1.7771777177717771,-0.018408992208117158
1.7781778177817782,-0.05960003762554741
1.7791779177917793,-0.015773011569442545
1.78017801780178,0.0019565531705207605
1.7811781178117811,-0.011059603409989138
1.7821782178217822,0.012685081535172584
1.7831783178317833,0.04285139730721714
1.784178417841784,0.03348678993264819
1.7851785178517852,0.025823596419749347
1.7861786178617862,0.029287116400613135
1.7871787178717873,0.02837254015385726
1.7881788178817881,-0.004216602487075655
1.7891789178917892,-0.01895407962318587
1.7901790179017902,0.03713802289774993
1.7911791179117913,0.04887729231632747
1.7921792179217921,-0.001444014778614871
1.7931793179317932,0.05708808445499178
1.7941794179417943,-0.00443498393247061
1.795179517951795,0.04746518715429053
1.7961796179617961,-0.010938091724848742
1.7971797179717972,0.029975003408891306
1.7981798179817983,-0.007338780594779509
1.799179917991799,0.04115279895601005
1.8001800180018002,0.002357824742142345
1.8011801180118012,0.02338131421076047
1.8021802180218023,0.028729774689966393
1.8031803180318031,0.005818371823606025
1.8041804180418042,-0.009535974483842649
1.8051805180518052,0.05226205094387111
1.8061806180618063,0.010774771054816428
1.8071807180718071,-0.019864300945473527
1.8081808180818082,0.019063185550853897
1.8091809180918093,-0.021261221761761834
1.81018101810181,-0.026463971096385725
1.8111811181118112,0.030038246621941225
1.8121812181218122,-0.0037592354206562534
1.8131813181318133,0.00635104062784578
1.814181418141814,-0.02509731419209521
1.8151815181518152,-0.04872634727018085
1.8161816181618162,-0.04382694042098162
1.8171817181718173,0.0031626636881834144
1.8181818181818181,-0.028548678997754543
1.8191819181918192,-0.020861333501941855
1.8201820182018202,-0.06130507286392714
1.8211821182118213,0.020652712146709464
1.8221822182218221,-0.044891756256828785
1.8231823182318232,0.02164305770714329
1.8241824182418243,-0.0018830501394217778
1.825182518251825,-0.011162682750469036
1.8261826182618262,0.07882619325227808
1.8271827182718272,0.05224668430700593
1.8281828182818283,0.04246527351217571
1.829182918291829,0.012481281212953131
1.8301830183018302,-0.017178856008400294
1.8311831183118312,-0.040257399490525536
1.8321832183218323,-0.02854674188294866
1.8331833183318331,-0.03984654018474343
1.8341834183418342,0.04402169166544317
1.8351835183518352,-0.005607271610589422
1.8361836183618363,-0.04006806485645386
1.8371837183718371,0.012941565959818456
1.8381838183818382,-0.055153697987471495
1.8391839183918393,0.02371268269919877
1.84018401840184,-0.04638089541682873
1.8411841184118412,-0.009784137479261032
1.8421842184218422,0.02052782813319012
1.8431843184318433,0.00949732719797899
1.844184418441844,0.007038182851795319
1.8451845184518452,-0.02068866508726547
1.8461846184618462,0.022504908519599794
1.8471847184718473,0.0359585766761632
1.8481848184818481,0.0017429250504265071
1.8491849184918492,0.060168954394070835
1.8501850185018502,0.02944331945868349
1.8511851185118513,0.018810489688934708
1.8521852185218521,-0.0052591323045742076
1.8531853185318532,0.029708643452773974
1.8541854185418543,0.031320544170117426
1.855185518551855,0.03600204800479636
1.8561856185618562,-0.03916852103025127
1.8571857185718572,-0.04256894637411396
1.8581858185818583,0.015282310682384337
1.859185918591859,-0.05446608752015843
1.8601860186018602,-0.03540817683803233
1.8611861186118612,0.022228866855559068
1.8621862186218623,-0.014994747815137863
1.8631863186318631,-0.031098339380871923
1.8641864186418642,0.009836597500211321
1.8651865186518652,-0.009644792735836337
1.8661866186618663,-0.016515504410556103
1.8671867186718671,0.05623722121657709
1.8681868186818682,-0.03526122127305307
1.8691869186918693,-0.01046881710429683
1.87018701870187,-0.02209089753580285
1.8711871187118712,0.008918697567340615
1.8721872187218722,-0.027087856486864674
1.8731873187318733,0.016750393899189833
1.8741874187418741,0.005879586021192233
1.8751875187518752,0.010708897671241452
1.8761876187618762,0.0006032336323883801
1.8771877187718773,0.034533781184355884
1.8781878187818781,-0.012840519327426119
1.8791879187918792,-0.037662784522593584
1.8801880188018802,-0.02854143758448216
1.8811881188118813,0.011523725588536097
1.8821882188218821,-0.014084432732097316
1.8831883188318832,-0.06800366380999434
1.8841884188418843,0.034541424113481434
1.885188518851885,-0.01405517664771016
1.8861886188618862,0.024228185804301597
1.8871887188718872,-0.031458336966278325
1.8881888188818883,-0.02501844210499022
1.8891889188918891,-0.028675596317226215
1.8901890189018902,-0.028671093582974497
1.8911891189118912,-0.01747610373296691
1.8921892189218923,0.06472533084270021
1.8931893189318931,0.5367307605545868
1.8941894189418942,0.9811964598107654
1.8951895189518952,0.2758981824111659
1.8961896189618963,0.05681256439440251
1.8971897189718971,0.01382776162384604
1.8981898189818982,0.027666431730875844
1.8991899189918993,-0.08102923796703912
1.9001900190019,-0.03413325450388802
1.9011901190119012,-0.04946904810688002
1.9021902190219022,-0.02594375340380469
1.9031903190319033,-0.07386919122532762
1.9041904190419041,-4.279282802183609e-05
1.9051905190519052,0.00917941418276374
1.9061906190619062,-0.03251618901441558
1.9071907190719073,-0.01590049737404173
1.9081908190819081,0.016640214279533258
1.9091909190919092,0.023114778852123614
1.9101910191019102,-0.03599490517037042
1.9111911191119113,0.01624915089773414
1.9121912191219121,0.0065617018189747245
1.9131913191319132,-0.028795193068570465
1.9141914191419143,0.032499124896168685
1.915191519151915,-0.04820992879060111
1.9161916191619162,-0.049028871620986486
1.9171917191719172,-0.033216401798290676
1.9181918191819183,-0.026643160697498988
1.9191919191919191,0.013804360927962198
1.9201920192019202,0.0009161522553208153
1.9211921192119212,0.006641032728671366
1.9221922192219223,0.02795943157327619
1.9231923192319231,-0.006592619337928845
1.9241924192419242,-0.06242525060882712
1.9251925192519252,0.011952196738466212
1.9261926192619263,0.020361140712130594
1.9271927192719271,0.04199531155191048
1.9281928192819282,-0.02518886300637937
1.9291929192919293,0.002219113339435546
1.93019301930193,0.012600823406698075
1.9311931193119312,0.010918298204140192
1.9321932193219322,0.049557781926089346
1.9331933193319333,0.08729250886868577
1.9341934193419341,-0.021197569306397452
1.9351935193519352,-0.01607172308791933
1.9361936193619362,-0.01297872861384128
1.9371937193719373,-0.023766741024406148
1.9381938193819381,-0.023749358868531897
1.9391939193919392,0.006378713675845901
1.9401940194019403,-0.007676819668941656
1.9411941194119413,-0.04061534609237952
1.9421942194219421,-0.028205593166609293
1.9431943194319432,-0.0380811214045146
1.9441944194419443,0.0398625770688422
1.945194519451945,0.02079923530919971
1.9461946194619462,-0.004721672404683776
1.9471947194719472,-0.020066820309896316
1.9481948194819483,0.02194115285540192
1.9491949194919491,0.011489014352056893
1.9501950195019502,-0.06589580854672653
1.9511951195119512,-0.04251803285417562
1.9521952195219523,0.005643199218700425
1.9531953195319531,-0.001881638757563406
1.9541954195419542,0.010924236368559177
1.9551955195519553,0.04494402826231641
1.9561956195619563,0.010065489248425489
1.9571957195719571,-0.015976720923052124
1.9581958195819582,-0.008336313223773642
1.9591959195919593,-0.02667229984106101
1.96019601960196,0.051925164720905144
1.9611961196119612,-0.021060601263299988
1.9621962196219622,-0.0582300831436335
1.9631963196319633,0.01686405073728768
1.9641964196419641,0.04388670804065291
1.9651965196519652,0.024173128181331095
1.9661966196619662,-0.018921154375928433
1.9671967196719673,-0.0003343051354512264
1.9681968196819681,0.02453815156066725
1.9691969196919692,0.017585830458998704
1.9701970197019703,-0.002136290206098078
1.9711971197119713,0.01170221455821546
1.9721972197219722,-0.02184487392582061
1.9731973197319732,-0.04665262222976815
1.9741974197419743,0.016961185449406644
1.975197519751975,-0.013474121209507818
1.9761976197619762,0.008699791010740305
1.9771977197719772,-0.01553892090679944
1.9781978197819783,-0.0046060522837628555
1.9791979197919791,-0.021647523760055822
1.9801980198019802,-0.03916494833218254
1.9811981198119812,0.0002864907112347249
1.9821982198219823,-0.011923016490567743
1.9831983198319831,-0.016286463718547584
1.9841984198419842,-0.03446905725863744
1.9851985198519853,-0.0024997839785939075
1.9861986198619863,0.015608897040461225
1.9871987198719872,0.007659176078481836
1.9881988198819882,0.040752421120510716
1.9891989198919893,-0.0026352473168100667
1.99019901990199,0.016583310383917513
1.9911991199119912,-0.010716350172571061
1.9921992199219922,0.028963996819573828
1.9931993199319933,-0.044830704358167967
1.9941994199419941,0.014989299878030087
1.9951995199519952,-0.0652722145099665
1.9961996199619962,-0.0015262238901776342
1.9971997199719973,0.03232237113491309
1.9981998199819981,-0.02453787832099866
1.9991999199919992,0.0036965978546669095
2.000200020002,-0.01107913655609447
2.001200120012001,0.017263009681019865
2.002200220022002,-0.014950484072099807
2.003200320032003,0.006460128489759505
2.0042004200420043,-0.01915862598414148
2.0052005200520053,-0.030302052310922405
2.0062006200620064,-0.020123283734525182
2.007200720072007,-0.04055790237844165
2.008200820082008,0.01951441319157471
2.009200920092009,-0.05398881462219756
2.01020102010201,-0.01047859889423734
2.0112011201120112,-0.00943672067962921
2.0122012201220123,0.019719198475908025
2.0132013201320134,0.03608589804030995
2.0142014201420144,0.05021155288227825
2.015201520152015,0.03067476018916514
2.016201620162016,0.0028867451881926126
2.017201720172017,0.017686022004203605
2.018201820182018,0.01695959378434085
2.0192019201920193,0.0415150993715116
2.0202020202020203,-0.013138140940795746
2.0212021202120214,0.013687224263258805
2.022202220222022,0.017543484941252588
2.023202320232023,-0.03403494729494047
2.024202420242024,-0.000234305941188406
2.025202520252025,0.04643359440428954
2.0262026202620262,0.046988435453852145
2.0272027202720273,-0.01531828675023669
2.0282028202820284,0.009218649804899205
2.0292029202920294,-0.033194744126230046
2.03020302030203,-0.014193292537610178
2.031203120312031,-0.024557713823587225
2.032203220322032,-0.007222592646614265
2.033203320332033,-0.039146943335599614
2.0342034203420343,0.01046705519583017
2.0352035203520353,-0.017220592722264495
2.0362036203620364,-0.05333337368090848
2.037203720372037,0.015473219007511044
2.038203820382038,-0.07432356496193059
2.039203920392039,-0.07580203540834059
2.04020402040204,0.029419086408529197
2.0412041204120412,0.02785760989076152
2.0422042204220423,0.019108192005188242
2.0432043204320434,0.07777145835327912
2.0442044204420444,-0.02148560290985638
2.045204520452045,-0.009634779015348318
2.046204620462046,-0.018659842393273365
2.047204720472047,-0.0018454342191215399
2.048204820482048,-0.03862183394236236
2.0492049204920493,0.02143629628388726
2.0502050205020503,-0.03648068768870347
2.0512051205120514,-0.011874900914720612
2.052205220522052,0.01829194874943117
2.053205320532053,-0.04338176676860825
2.054205420542054,-0.008423545919336783
2.055205520552055,-0.0381036420380863
2.0562056205620562,-0.014900722235253426
2.0572057205720573,-0.014406834730991436
2.0582058205820584,0.0004228615280354536
2.0592059205920594,0.016592245019115617
2.06020602060206,0.0044596899453695805
2.061206120612061,0.062231366194110356
2.062206220622062,-0.025764604885566943
2.063206320632063,0.0010454553485864963
2.0642064206420643,-0.009669154443459503
2.0652065206520653,-0.015428895679410914
2.0662066206620664,0.010633861768764288
2.067206720672067,0.029133415094012658
2.068206820682068,-0.022597091150134863
2.069206920692069,-0.005769537872452959
2.07020702070207,-0.027137252785865342
2.0712071207120712,0.0331189424451223
2.0722072207220723,0.017966743592989977
2.0732073207320734,-0.0026597800009105386
2.0742074207420744,0.0013504599938434399
2.075207520752075,-0.0020839912766945252
2.076207620762076,-0.049640886884223474
2.077207720772077,0.02197839180270349
2.078207820782078,-0.011048769115598722
2.0792079207920793,0.002747614832350157
2.0802080208020803,0.011132512874589178
2.0812081208120814,0.024552303852979858
2.082208220822082,0.005558233204477534
2.083208320832083,0.008890738602140184
2.084208420842084,0.028018716737527486
2.085208520852085,-0.0009613025931860509
2.0862086208620862,-0.0024193259846202707
2.0872087208720873,0.03479798533021584
2.0882088208820884,-0.008441488668773301
2.0892089208920894,0.049686169509317826
2.09020902090209,-0.015975190511397574
2.091209120912091,0.072133323217999
2.092209220922092,-0.012356726676030392
2.093209320932093,-0.020277686599050344
2.0942094209420943,0.004032469596407892
2.0952095209520953,-0.006370714257589051
2.0962096209620964,-0.029344315573423
2.097209720972097,-0.022468285555804268
2.098209820982098,-0.00893988549542202
2.099209920992099,-0.009858419881304517
2.1002100210021,-0.028785234943836585
2.1012101210121013,0.02280578858323569
2.1022102210221023,-0.016833511570130383
2.1032103210321034,-0.013405063410072623
2.1042104210421044,-0.004892586295159942
2.105210521052105,0.03945711252778992
2.106210621062106,-0.06177929558400334
2.107210721072107,-0.020015623685115287
2.108210821082108,-0.057006021111386244
2.1092109210921093,0.03067300606291419
2.1102110211021103,-0.003253492484754585
2.1112111211121114,-0.009621086654821502
2.112211221122112,0.011240846062049434
2.113211321132113,0.03197394997993235
2.114211421142114,0.008722086731419807
2.115211521152115,-0.06364873115127746
2.1162116211621163,0.0067718069787715855
2.1172117211721173,0.018341704806331408
2.1182118211821184,0.01146176648326403
2.1192119211921194,-0.005243024246768802
2.12021202120212,-0.004528590969322166
2.121212121212121,0.022660852642840824
2.122212221222122,0.03916595931953856
2.1232123212321232,0.010494692356204541
2.1242124212421243,-0.01737543718152035
2.1252125212521253,0.0129120913520721
2.1262126212621264,-0.04690737092530176
2.127212721272127,0.0020372651095115595
2.128212821282128,0.016213828374084034
2.129212921292129,-0.03581269475037922
2.13021302130213,0.0025516161328411847
2.1312131213121313,0.03442931173448706
2.1322132213221323,-0.03875210721405456
2.1332133213321334,-0.05664452912936398
2.1342134213421344,0.010437311202692392
2.135213521352135,0.003536437859068759
2.136213621362136,0.016428720605586054
2.137213721372137,-0.014000377527728697
2.1382138213821382,-0.0004655428504307393
2.1392139213921393,0.028250195147840437
2.1402140214021403,-0.00349562886169554
2.1412141214121414,0.0063681596975624375
2.142214221422142,0.06787987170145283
2.143214321432143,-0.002689417444019128
2.144214421442144,0.006786998210503541
2.145214521452145,-0.06335085724146795
2.1462146214621463,-0.021025410389242473
2.1472147214721473,0.009119077144213537
2.1482148214821484,0.0832907560416386
2.1492149214921494,0.48539055734152275
2.15021502150215,1.036663044090043
2.151215121512151,0.27545752873447393
2.152215221522152,0.1293154599947286
2.1532153215321532,-0.0009537689948442528
2.1542154215421543,0.05790146669309291
2.1552155215521553,0.008136738840723374
2.1562156215621564,0.033401851638676275
2.157215721572157,0.032163132306230004
2.158215821582158,-0.013953499051443793
2.159215921592159,0.03689580110333979
2.16021602160216,0.0007652896819043646
2.1612161216121613,0.030364897251818783
2.1622162216221623,-0.02439237978580671
2.1632163216321634,-0.07530542445527069
2.1642164216421644,-0.02543797840133238
2.165216521652165,-0.01485412942748519
2.166216621662166,0.008561238271653194
2.167216721672167,-0.00014768392625192048
2.1682168216821682,-0.06156292482987516
2.1692169216921693,0.008714925694637447
2.1702170217021703,0.046119860423990085
2.1712171217121714,-0.009240520653920996
2.172217221722172,-0.04361307292569139
2.173217321732173,-0.021193078293213184
2.174217421742174,-0.017568335514612624
2.175217521752175,-0.009784019682723933
2.1762176217621763,0.034550814332357245
2.1772177217721773,0.06466668590791623
2.1782178217821784,0.007403783885715421
2.1792179217921794,-0.016504678124587394
2.18021802180218,0.0013532859127204512
2.181218121812181,0.03623133262449125
2.182218221822182,-0.026383691011156295
2.1832183218321832,0.011311504712759664
2.1842184218421843,0.0034376968037266985
2.1852185218521853,-0.013877548066339864
2.1862186218621864,-0.007428455135860109
2.187218721872187,0.0069657403220107945
2.188218821882188,-0.01868933510868381
2.189218921892189,0.05650028594098975
2.19021902190219,-0.03176603615816198
2.1912191219121913,0.003169950130011338
2.1922192219221923,0.06514844455499455
2.1932193219321934,-0.06076154846325282
2.1942194219421944,0.06091571395397804
2.195219521952195,0.005329186111540654
2.196219621962196,0.004871838123139642
2.197219721972197,0.051039475150175956
2.1982198219821982,0.0032776042783944134
2.1992199219921993,-0.023673587303428664
2.2002200220022003,0.0014036314914191719
2.2012201220122014,-0.03389013612327785
2.202220222022202,0.032167596439024226
2.203220322032203,-0.008109877660034053
2.204220422042204,-0.019827435038993604
2.205220522052205,-0.0427807784169536
2.2062206220622063,6.00642314362734e-05
2.2072207220722073,-0.04070275907239481
2.2082208220822084,0.023758077953798595
2.2092209220922094,-0.009984804421473134
2.21022102210221,0.00960929999350774
2.211221122112211,0.01992381404816181
2.212221222122212,-0.07061113024415216
2.2132213221322132,-0.03053498206719145
2.2142214221422143,-0.036750050658863186
2.2152215221522153,0.06201168730701134
2.2162216221622164,-0.013491975977670032
2.217221722172217,-0.04038289610051627
2.218221822182218,0.041391377812618105
2.219221922192219,0.004008424912257469
2.22022202220222,0.028573853605645405
2.2212221222122213,-0.002686367766417106
2.2222222222222223,-0.012691606937863554
2.2232223222322234,-0.038379104947931314
2.2242224222422244,0.005341336908698697
2.225222522252225,-0.035314880724802114
2.226222622262226,0.0007321683235563677
2.227222722272227,0.048861556287376116
2.2282228222822282,0.014277202447513009
2.2292229222922293,0.0365411020102181
2.2302230223022304,0.017340250614502704
2.2312231223122314,0.0006282245363130329
2.232223222322232,-0.028177108002074753
2.233223322332233,-0.01046656327437694
2.234223422342234,-0.017195396294770765
2.235223522352235,0.032602864010778256
2.2362236223622363,0.009831663173949687
2.2372237223722373,-0.023433103994409076
2.2382238223822384,-0.006546846978677699
2.2392239223922394,-0.02259573374655393
2.24022402240224,0.008452262023971464
2.241224122412241,-0.030646052655411225
2.242224222422242,0.013223697662768952
2.2432243224322432,0.010477861032927705
2.2442244224422443,-3.01743058401502e-05
2.2452245224522454,-0.029517602769261058
2.2462246224622464,0.02173619112923216
2.247224722472247,0.043905373932925165
2.248224822482248,0.030909913847640833
2.249224922492249,-0.012917583968300285
2.25022502250225,0.013568265151581462
2.2512251225122513,-0.01743231473030625
2.2522252225222523,0.009601864335955794
2.2532253225322534,-0.08182273647880017
2.2542254225422544,0.012371901333356075
2.255225522552255,-0.0279160890902715
2.256225622562256,-0.07868277033337781
2.257225722572257,0.033875353828938616
2.2582258225822582,0.061296878902066726
2.2592259225922593,0.009790127265914899
2.2602260226022604,-0.02847878032812816
2.2612261226122614,-0.013545243573032243
2.262226222622262,0.009482199741970624
2.263226322632263,0.041461813974845545
2.264226422642264,-0.029846355081163022
2.265226522652265,0.06318403795847319
2.2662266226622663,-0.01940367267441438
2.2672267226722673,0.003763840569479394
2.2682268226822684,-0.019766741503957807
2.2692269226922694,-0.002595481840927958
2.27022702270227,-0.05645282058892084
2.271227122712271,0.007609170767109361
2.272227222722272,-0.0011599338734545178
2.2732273227322732,-0.0007096080645299808
2.2742274227422743,0.022036972195099425
2.2752275227522754,-0.037138217235441556
2.2762276227622764,0.010846981398414935
2.277227722772277,-0.01723813197653483
2.278227822782278,0.013531253709840175
2.279227922792279,-0.003285570861304406
2.28022802280228,0.00665473851918824
2.2812281228122813,-0.0066005586639807864
2.2822282228222823,-0.02082743295173853
2.2832283228322834,0.004289524825362305
2.2842284228422844,0.00423183055986747
2.285228522852285,-0.025849475927439473
2.286228622862286,0.008131977269428207
2.287228722872287,0.05100146768971908
2.2882288228822882,-0.005594935030668205
2.2892289228922893,0.021641561389111053
2.2902290229022904,0.01053564593076573
2.2912291229122914,-0.005052249065057179
2.292229222922292,-0.018447587859519988
2.293229322932293,0.01406784510359381
2.294229422942294,-0.017583143229468745
2.295229522952295,0.03961422966352668
2.2962296229622963,-0.02352986936958895
2.2972297229722973,0.03274693338544883
2.2982298229822984,-0.004089751333633353
2.2992299229922994,0.0029736154475679226
2.3002300230023,-0.03329319169436596
2.301230123012301,0.078653764469493
2.302230223022302,-0.014205017498570045
2.3032303230323032,-0.045407437016101754
2.3042304230423043,-0.019297969710976068
2.3052305230523054,0.01044211870648031
2.3062306230623064,0.016794527411855227
2.307230723072307,0.03650505000826744
2.308230823082308,-0.03180592259117292
2.309230923092309,-0.024165303257646677
2.31023102310231,-0.01999838792378502
2.3112311231123113,-0.010776418932254834
2.3122312231223123,-0.019165342273829475
2.3132313231323134,-0.012655694236194979
2.3142314231423144,0.010785350901023014
2.315231523152315,0.02646807017681706
2.316231623162316,0.0009098001183837918
2.317231723172317,0.03399801335958402
2.3182318231823182,-0.01070059628023889
2.3192319231923193,0.018321245009326425
2.3202320232023204,0.033660071138669784
2.3212321232123214,0.034062234960150595
2.322232223222322,0.048916420930071945
2.323232323232323,0.005732565873833846
2.324232423242324,0.0056386943526874215
2.325232523252325,-0.037285293655346
2.3262326232623263,-0.005005690171282016
2.3272327232723273,-0.04266210971257528
2.3282328232823284,-0.012477500401501798
2.3292329232923294,-0.04386701631387898
2.33023302330233,0.036153387647948
2.331233123312331,-0.0660773684472234
2.332233223322332,-0.023440361346867573
2.3332333233323332,0.03239075763446995
2.3342334233423343,0.022242474062026573
2.3352335233523354,0.028717060209757964
2.3362336233623364,-0.04923170798071583
2.337233723372337,-0.03641266060454878
2.338233823382338,-0.012146724884755501
2.339233923392339,-0.040506987391852364
2.34023402340234,-0.018244064569304597
2.3412341234123413,-0.0006133143993311955
2.3422342234223423,-0.006865067410582833
2.3432343234323434,0.03762371662367481
2.3442344234423445,-0.0008376899463051398
2.345234523452345,-0.006652216450009787
2.346234623462346,0.0324055711650626
2.347234723472347,-0.009973561569130155
2.3482348234823482,0.03702025653455094
2.3492349234923493,-0.04530293317887117
2.3502350235023504,0.016842428684824096
2.3512351235123514,0.015136723567294388
2.352235223522352,-0.05493064753113736
2.353235323532353,-0.007253284948679367
2.354235423542354,-0.059991352649267755
2.355235523552355,-0.020069118251898374
2.3562356235623563,0.044444571770853404
2.3572357235723573,-0.022049770599840226
2.3582358235823584,-0.004149401717907842
2.3592359235923595,0.052035271232498424
2.36023602360236,-0.00992163242410208
2.361236123612361,-0.013125681105705571
2.362236223622362,-0.04281117502500042
2.3632363236323632,-0.024504351950311733
2.3642364236423643,0.018737142649491497
2.3652365236523654,0.009450917742470694
2.3662366236623664,0.04805263681406811
2.367236723672367,0.009711831850858619
2.368236823682368,-0.0032501020116358624
2.369236923692369,-0.01839100526734406
2.37023702370237,0.013186792762019625
2.3712371237123713,-0.009988151951437232
2.3722372237223723,-0.018190072672166612
2.3732373237323734,-0.0912526451040462
2.3742374237423745,0.028735766027292213
2.375237523752375,0.0008016238251983167
2.376237623762376,0.017682575324327987
2.377237723772377,-0.03344598664100564
2.3782378237823782,0.032763507011264466
2.3792379237923793,-0.028346588779371
2.3802380238023804,-0.019411134221343537
2.3812381238123814,0.053659242158846855
2.382238223822382,-0.02347705539830282
2.383238323832383,0.0498044201855852
2.384238423842384,-0.04970721783965426
2.385238523852385,-0.05120614598716359
2.3862386238623863,0.0010274092829904943
2.3872387238723873,0.016721649617972876
2.3882388238823884,0.012389863850860078
2.3892389238923895,-0.031035369154098408
2.39023902390239,-0.07276224804643236
2.391239123912391,0.0352992564305109
2.392239223922392,0.005981727568384917
2.3932393239323932,-0.021804440065208906
2.3942394239423943,-0.012686252106707917
2.3952395239523954,0.003416315460111981
2.3962396239623964,-0.00070679217436228
2.397239723972397,-0.006418016139408985
2.398239823982398,-0.002462886559333551
2.399239923992399,0.038046851260377205
2.4002400240024,0.02112731520333442
2.4012401240124013,-0.023475552686548395
2.4022402240224023,0.022994767675554008
2.4032403240324034,0.028022900260966467
2.4042404240424045,0.15925662469723412
2.405240524052405,0.4603749893460915
2.406240624062406,0.9904979505294965
2.407240724072407,0.3009413270412678
2.4082408240824082,0.11363604862213082
2.4092409240924093,-0.02547625549540653
2.4102410241024104,-0.018735511450050417
2.4112411241124114,-0.0510234144728159
2.412241224122412,-0.026204035289204727
2.413241324132413,-0.035784140120538974
2.414241424142414,0.04544321167461025
2.415241524152415,-0.024738428654800037
2.4162416241624163,-0.03544836718079552
2.4172417241724173,0.006110353239670221
2.4182418241824184,-0.017490828752689168
2.4192419241924195,-0.03460585969011454
2.42024202420242,0.02318278509551246
2.421242124212421,-0.01526581474388166
2.422242224222422,-0.03810945735280823
2.4232423242324233,-0.012732654446813868
2.4242424242424243,0.005798835383116891
2.4252425242524254,0.03556530217618821
2.4262426242624264,0.01155741995375286
2.427242724272427,0.014184452066090928
2.428242824282428,0.01089940151407453
2.429242924292429,0.052369046576694604
2.43024302430243,0.00973905330714555
2.4312431243124313,0.0280877209650815
2.4322432243224323,-0.034771042548140396
2.4332433243324334,-0.052025608734412726
2.4342434243424345,-0.0005922765923712543
2.435243524352435,0.019880751183270595
2.436243624362436,0.004127609404633875
2.437243724372437,0.04061376383165453
2.4382438243824383,-0.025295156622133386
2.4392439243924393,0.06789459913313531
2.4402440244024404,0.020314889713315597
2.4412441244124414,-0.022280955279370213
2.442244224422442,0.007567929209847057
2.443244324432443,0.001595134661465546
2.444244424442444,-0.005469786080449605
2.4452445244524452,0.010643438240545231
2.4462446244624463,-0.001106129708863609
2.4472447244724473,0.004073728598244911
2.4482448244824484,-0.0014482456390474728
2.4492449244924495,-0.03157824120763442
2.45024502450245,-0.008629299270410996
2.451245124512451,-0.02513993957902799
2.452245224522452,0.0346640227430044
2.4532453245324533,0.048384129417768526
2.4542454245424543,0.010712694043069609
2.4552455245524554,0.005869708178378416
2.4562456245624564,0.04904454462729196
2.457245724572457,0.02332370466526047
2.458245824582458,-0.011222228131595059
2.459245924592459,0.0027177930777060556
2.4602460246024602,-0.027669508159559143
2.4612461246124613,0.0090784218812502
2.4622462246224623,0.014960991156687267
2.4632463246324634,-0.01095368303583917
2.4642464246424645,0.03724886150638759
2.465246524652465,-0.002377401209836718
2.466246624662466,-0.0038234899842930414
2.467246724672467,-0.011067807735045716
2.4682468246824683,-0.0060087707484013835
2.4692469246924693,0.015823734143329722
2.4702470247024704,0.01901271279168597
2.4712471247124714,-0.014111602180357482
2.472247224722472,0.03938214441464371
2.473247324732473,-0.03577692828241722
2.474247424742474,0.015767437048503447
2.4752475247524752,0.035795477079489
2.4762476247624763,0.035440512155078485
2.4772477247724773,-0.05382354426741231
2.4782478247824784,0.001324503880677006
2.4792479247924795,-0.010335808157657243
2.48024802480248,0.021186682513006098
2.481248124812481,0.08621840288694188
2.482248224822482,0.035136062787522605
2.4832483248324833,-0.05215983829523429
2.4842484248424843,0.01092682762721312
2.4852485248524854,-0.035440099660312425
2.4862486248624864,-0.052049572662020635
2.487248724872487,-0.022714507668101288
2.488248824882488,0.021113034444493757
2.489248924892489,0.008374027023767017
2.4902490249024902,0.0024617385712604237
2.4912491249124913,0.0323585173226567
2.4922492249224923,0.0477396283954077
2.4932493249324934,0.00417849474381256
2.4942494249424945,0.03805791949598093
2.495249524952495,0.019814149487925165
2.496249624962496,0.00891198197977824
2.497249724972497,0.007413471103178417
2.4982498249824983,0.013303629478916832
2.4992499249924993,0.03262511639152142
2.5002500250025004,-0.032457475764328496
2.5012501250125014,0.005220170166839778
2.502250225022502,-0.02978990772707397
2.503250325032503,-0.01261608475698227
2.504250425042504,0.0016874521710987427
2.5052505250525052,0.022011862891142476
2.5062506250625063,-0.022352422054968853
2.5072507250725073,0.005870070020441737
2.5082508250825084,-0.0007016492266361459
2.5092509250925095,-0.028593789891259224
2.51025102510251,-0.02211698015947285
2.511251125112511,0.01972469867124638
2.512251225122512,0.04864080722261929
2.5132513251325133,-0.06148409142054458
2.5142514251425143,-0.01975440365942519
2.5152515251525154,-0.0025238975413028556
2.5162516251625164,0.01414465002265036
2.517251725172517,0.04632230336496721
2.518251825182518,0.013937425706564631
2.519251925192519,0.021872045742461616
2.5202520252025202,-0.0124213151822411
2.5212521252125213,0.05588507311172894
2.5222522252225223,-0.0014020534649748716
2.5232523252325234,0.005176392282464053
2.5242524252425245,0.06799627203341517
2.525252525252525,0.04031230141255136
2.526252625262526,0.02945785516188951
2.527252725272527,0.013058653816279181
2.5282528252825283,0.0010490822235528128
2.5292529252925293,0.022927004001568465
2.5302530253025304,-0.01145496763003441
2.5312531253125314,0.03248260061528962
2.532253225322532,0.01568793604465891
2.533253325332533,0.03490576721334164
2.534253425342534,-0.03620792635042128
2.5352535253525352,-0.026596086860918234
2.5362536253625363,-0.009228684565883737
2.5372537253725373,-0.036212251636514224
2.5382538253825384,0.013973387899906141
2.5392539253925395,-0.022970771885944333
2.54025402540254,-0.03749302571069616
2.541254125412541,-0.011899278202526668
2.542254225422542,-0.02201801006026915
2.5432543254325433,-0.024576497264665563
2.5442544254425443,-0.02458691737015118
2.5452545254525454,-0.030741500377449132
2.5462546254625464,-0.009945325413978358
2.547254725472547,-0.07165029066037763
2.548254825482548,-0.02110872458637485
2.549254925492549,0.02712776091817688
2.5502550255025502,-0.008275173533368868
2.5512551255125513,0.017157139966728713
2.5522552255225524,0.003917010144513005
2.5532553255325534,0.02429846964307165
2.5542554255425545,0.02608271769491657
2.555255525552555,0.020160540966805973
2.556255625562556,0.06616229773011074
2.557255725572557,-0.027369126201906225
2.5582558255825583,0.002242023547352975
2.5592559255925593,0.013732544981462029
2.5602560256025604,-0.0037547017471107375
2.5612561256125614,0.018566379863178366
2.562256225622562,0.0009045110870935879
2.563256325632563,-0.014691692685737702
2.564256425642564,0.011601763675610714
2.5652565256525652,-0.00029555652288246924
2.5662566256625663,-0.013037179742199397
2.5672567256725674,-0.015752526935795243
2.5682568256825684,-0.03323985700473722
2.5692569256925695,-0.02445185348395289
2.57025702570257,0.0006644519287215392
2.571257125712571,-0.008880998544276613
2.572257225722572,0.041799004309941705
2.5732573257325733,0.008425913414090647
2.5742574257425743,-0.0036102228476486697
2.5752575257525754,0.048529853409409435
2.5762576257625764,-0.012224372383500683
2.577257725772577,-0.01942439344245177
2.578257825782578,-0.017536207707033288
2.579257925792579,-0.012442137639298387
2.5802580258025802,-0.08626572918564351
2.5812581258125813,-0.057920290723375484
2.5822582258225824,-0.01382823833915591
2.5832583258325834,-0.020948494952942234
2.5842584258425845,0.012519094588961433
2.585258525852585,-0.010333454169737117
2.586258625862586,0.024085315649354382
2.587258725872587,-0.020096936010105437
2.5882588258825883,-0.038611303045676566
2.5892589258925893,0.07202464920334127
2.5902590259025904,-0.035719673305844496
2.5912591259125914,-0.007140329666319795
2.592259225922592,0.018701441465887828
2.593259325932593,0.03860192980095887
2.594259425942594,0.05656199806551728
2.5952595259525952,0.05959162687806487
2.5962596259625963,-0.011997769729560221
2.5972597259725974,0.010817079993304304
2.5982598259825984,-0.03540093504788773
2.5992599259925995,0.02311890693899734
2.6002600260026,0.015017162607340553
2.601260126012601,-0.022369979090822823
2.602260226022602,-0.016066728832786727
2.6032603260326033,0.02025733321202174
2.6042604260426043,0.035146249653152196
2.6052605260526054,0.017328213752749705
2.6062606260626064,0.03219168688326397
2.607260726072607,0.0055296053882298085
2.608260826082608,0.029000358221152597
2.609260926092609,-0.012857004971305928
2.6102610261026102,-0.02682340135677543
2.6112611261126113,-0.02019811618392312
2.6122612261226124,0.004048808730015906
2.6132613261326134,-0.005777489301112044
2.6142614261426145,-0.029514576781071576
2.615261526152615,0.036624391512566586
2.616261626162616,-0.037140488384532655
2.617261726172617,-0.006870326306764
2.6182618261826183,-0.0005996808330308595
2.6192619261926193,0.022844472295891472
2.6202620262026204,-0.016053206738140122
2.6212621262126214,-0.02713543610262418
2.622262226222622,-0.000283635299255979
2.623262326232623,0.0025558508390413617
2.624262426242624,-0.0323934194529609
2.6252625262526252,0.025374650261018882
2.6262626262626263,0.005380004635156945
2.6272627262726274,-0.025899763012736145
2.6282628262826284,-0.024930629851731917
2.6292629262926295,-0.06382657854306104
2.63026302630263,0.036763007147559874
2.631263126312631,0.014803737261955068
2.632263226322632,0.01216982172378532
2.6332633263326333,-0.010555652761449983
2.6342634263426343,-0.0209766896958102
2.6352635263526354,-0.027181091496365353
2.6362636263626364,0.05545344550731576
2.637263726372637,-0.005695274232324279
2.638263826382638,0.0071166010355931866
2.639263926392639,-0.0271935132993998
2.6402640264026402,0.009194320163470915
2.6412641264126413,-0.0216764323540098
2.6422642264226424,0.013012435803566385
2.6432643264326434,-0.008913005828714751
2.6442644264426445,0.008216416615550429
2.645264526452645,-0.03235107564176601
2.646264626462646,-0.020096087914871035
2.647264726472647,-0.039389147313682184
2.6482648264826483,-0.042058078367263614
2.6492649264926493,0.004696320833244948
2.6502650265026504,0.038638507251847296
2.6512651265126514,0.04472060895169477
2.652265226522652,0.01631764752641873
2.653265326532653,0.03604499994275677
2.654265426542654,0.03906602831060456
2.6552655265526552,-0.008542137963739574
2.6562656265626563,-0.03449827878061739
2.6572657265726574,0.028168839820982516
2.6582658265826584,-0.029285034379762407
2.6592659265926595,0.0360915648629348
2.66026602660266,0.1376193187968772
2.661266126612661,0.5173496329232994
2.662266226622662,0.9993353915347506
2.6632663266326633,0.3311432474185048
2.6642664266426643,0.10459492183012793
2.6652665266526654,0.02817616779109811
2.6662666266626665,-0.005741778258169654
2.667266726672667,0.02594425651647303
2.668266826682668,0.04858680259988758
2.669266926692669,-0.005891937787931874
2.6702670267026702,0.03473347723074919
2.6712671267126713,0.025890930103939575
2.6722672267226724,-0.03704125506484269
2.6732673267326734,-0.05161188436968587
2.6742674267426745,0.02322737958428143
2.675267526752675,-0.028769675483723958
2.676267626762676,0.008529494231459466
2.677267726772677,0.021471574404151792
2.6782678267826783,0.023624837767719672
2.6792679267926793,-0.07098569393134574
2.6802680268026804,0.04394202817235122
2.6812681268126815,-0.0034152850186835544
2.682268226822682,0.01357945728850973
2.683268326832683,-0.06719037476159173
2.684268426842684,-0.025067113338143408
2.6852685268526852,0.0018455862077791719
2.6862686268626863,-0.0011002963220870271
2.6872687268726874,-0.02749749312437924
2.6882688268826884,-0.0067840468451413624
2.6892689268926895,0.03543599923894445
2.69026902690269,-0.006113921391137073
2.691269126912691,-0.01054034052530781
2.692269226922692,0.005325668854512862
2.6932693269326933,0.010808416803821259
2.6942694269426943,0.028910117525439937
2.6952695269526954,-0.02109069127037511
2.6962696269626965,0.044053834935029894
2.697269726972697,0.023778052183202128
2.698269826982698,0.021762110883111484
2.699269926992699,-0.03925919967912326
2.7002700270027002,0.0381991728390307
2.7012701270127013,-0.0013624957538326936
2.7022702270227024,0.01174239313957586
2.7032703270327034,-0.00282990820929556
2.7042704270427045,-0.013502849598178749
2.705270527052705,-0.04173619128882235
2.706270627062706,-0.05461803313302125
2.707270727072707,0.00462087253367629
2.7082708270827083,-0.0016965965884320363
2.7092709270927093,0.05765122581483885
2.7102710271027104,0.0012903436493311902
2.7112711271127115,0.001269593105131731
2.712271227122712,-0.021339331828101753
2.713271327132713,0.01972409422499361
2.714271427142714,0.05559029347284235
2.7152715271527152,0.023824878135733252
2.7162716271627163,-0.0019136391934164137
2.7172717271727174,-0.0008550926023712549
2.7182718271827184,0.0021575314101488353
2.7192719271927195,-0.03376328859059039
2.72027202720272,-0.012723397307323182
2.721272127212721,-0.031157680979365842
2.722272227222722,-0.008989290672476915
2.7232723272327233,-0.011751116433082057
2.7242724272427243,-0.022565215209714096
2.7252725272527254,0.009854524867357443
2.7262726272627265,-0.051349023766020574
2.727272727272727,0.011045827481761538
2.728272827282728,0.01765425734982901
2.729272927292729,-0.028832654236804357
2.7302730273027302,0.057718515748509856
2.7312731273127313,-0.021729135534241915
2.7322732273227324,-0.01463025023317219
2.7332733273327334,-0.00568454523427856
2.7342734273427345,0.010576363576901317
2.735273527352735,0.046051833610706604
2.736273627362736,0.04132029576737168
2.737273727372737,0.002713976666677035
2.7382738273827383,0.005074660400415146
2.7392739273927393,0.01448389814858714
2.7402740274027404,-0.0053032803093226236
2.7412741274127415,-0.048452540496533865
2.742274227422742,0.007059154823092542
2.743274327432743,-0.01156319021096963
2.744274427442744,-0.025884782810691103
2.7452745274527453,-0.016832549844756357
2.7462746274627463,0.017522834341257006
2.7472747274727474,0.006671332823451299
2.7482748274827484,-0.02130694977729037
2.7492749274927495,0.008780732798533057
2.75027502750275,-0.002867832421236624
2.751275127512751,0.015932489549369912
2.752275227522752,-0.003358831210984357
2.7532753275327533,0.03157977503643834
2.7542754275427543,-0.0027221731894262933
2.7552755275527554,0.016906781685081914
2.7562756275627565,0.029825441351775915
2.757275727572757,0.04026856796508411
2.758275827582758,-0.03344924920089468
2.759275927592759,0.01567393745075571
2.7602760276027603,-0.005066748237132866
2.7612761276127613,-0.01796731343226618
2.7622762276227624,0.016254821200380173
2.7632763276327634,0.024295230701926636
2.7642764276427645,0.005333019174515492
2.765276527652765,0.02368742557893129
2.766276627662766,0.038928099003111664
2.7672767276727672,0.003717947445630075
2.7682768276827683,0.026325181376859637
2.7692769276927693,0.03246807038122382
2.7702770277027704,0.015911612888972356
2.7712771277127715,0.04092684972599975
2.772277227722772,0.03527173510606338
2.773277327732773,0.018995540215680565
2.774277427742774,0.01109521169254782
2.7752775277527753,-0.012725685450662763
2.7762776277627763,0.027222091597803217
2.7772777277727774,0.04625663894780581
2.7782778277827784,-0.0635812506579115
2.7792779277927795,0.0023764813670406814
2.78027802780278,0.0001472784791889217
2.781278127812781,-0.03620411578321898
2.7822782278227822,-0.008108834105703311
2.7832783278327833,-0.027511498284937385
2.7842784278427843,0.026417861438434324
2.7852785278527854,0.015848433339789386
2.7862786278627865,0.00812258257993537
2.787278727872787,-0.003320515209497075
2.788278827882788,0.015295915865736911
2.789278927892789,0.038776443796452995
2.7902790279027903,-0.0015923843375257082
2.7912791279127913,-0.006243612352447205
2.7922792279227924,0.05633396823840956
2.7932793279327934,-0.014128819917179396
2.7942794279427945,0.022919149546401042
2.795279527952795,0.04139757301551543
2.796279627962796,0.013020478011470988
2.7972797279727972,0.003085409986933574
2.7982798279827983,-0.030299111757337984
2.7992799279927993,-0.0463666865569992
2.8002800280028004,-0.018222445639946436
2.8012801280128015,-0.04088783275116199
2.802280228022802,0.009929906951318297
2.803280328032803,-0.019475871972716743
2.804280428042804,-0.005458529450022204
2.8052805280528053,0.028360510913046203
2.8062806280628063,0.019328151711667053
2.8072807280728074,-0.03143153133799329
2.8082808280828084,0.029372133749617814
2.8092809280928095,-0.009854351126380148
2.81028102810281,0.05044215774580664
2.811281128112811,-0.02887112229115169
2.8122812281228122,-0.015576587681364702
2.8132813281328133,0.0026670230745616187
2.8142814281428143,-0.02995697324710067
2.8152815281528154,0.01066639807746443
2.8162816281628165,0.024858857159084095
2.817281728172817,-0.03729256791985129
2.818281828182818,-0.03383329036000917
2.819281928192819,-0.02407394008997881
2.8202820282028203,-0.02719374872870216
2.8212821282128213,-0.03852692575028851
2.8222822282228224,0.005241527502775325
2.8232823282328234,-0.028030917944241545
2.8242824282428245,0.01675499255016521
2.825282528252825,-0.019096342086426417
2.826282628262826,0.053940743639276256
2.8272827282728272,-0.009035383814239554
2.8282828282828283,0.01454328191941557
2.8292829282928293,0.01952469662432204
2.8302830283028304,0.00525956799318241
2.8312831283128315,-0.01492415294578627
2.832283228322832,0.004118629910706352
2.833283328332833,0.06438712518850068
2.834283428342834,0.0021093921130243515
2.8352835283528353,-0.02490317932853429
2.8362836283628363,-0.01886733752412047
2.8372837283728374,0.06748680120047729
2.8382838283828384,-0.004493177505388607
2.8392839283928395,0.029591895116348105
2.84028402840284,-0.0012459316836724672
2.841284128412841,0.028167427840911693
2.8422842284228422,-0.029216558059325843
2.8432843284328433,-0.028960970571879796
2.8442844284428443,0.03907259213199509
2.8452845284528454,0.01444068244491638
2.8462846284628465,0.007995254782600889
2.847284728472847,-0.0064012681973202885
2.848284828482848,0.05043171568790483
2.849284928492849,-0.03871890298127171
2.8502850285028503,0.02155379188372852
2.8512851285128513,0.04934504064426302
2.8522852285228524,0.00169592560194088
2.8532853285328534,-0.057787368018309485
2.8542854285428545,-0.019773127844495562
2.855285528552855,0.01968319718761871
2.856285628562856,-0.02313574747546411
2.8572857285728572,-0.0006330157748962916
2.8582858285828583,-0.00942472635154056
2.8592859285928593,0.03262010109436272
2.8602860286028604,0.006375034388449126
2.8612861286128615,0.031020134474989743
2.862286228622862,0.019352409633748072
2.863286328632863,0.019651164749705716
2.864286428642864,0.019128749296202615
2.8652865286528653,-0.01578561083379271
2.8662866286628663,0.011631379151958058
2.8672867286728674,-0.04528561428129011
2.8682868286828684,-0.020984284126282324
2.8692869286928695,0.003227443120529004
2.87028702870287,0.01862505259934119
2.871287128712871,0.04339234907718142
2.8722872287228722,0.01990133190500444
2.8732873287328733,0.01742093049303706
2.8742874287428744,0.037495468203106355
2.8752875287528754,-0.009530343458810025
2.8762876287628765,-0.012168183657323443
2.877287728772877,-0.024477867919116502
2.878287828782878,0.03189665690966421
2.879287928792879,0.003982553749901626
2.8802880288028803,0.0010863978877088032
2.8812881288128813,-0.03135618839890131
2.8822882288228824,-0.03976939548821418
2.8832883288328834,-0.0036588459969224734
2.8842884288428845,-0.02970477481489473
2.885288528852885,-0.006345179664121793
2.886288628862886,-0.011034357361200307
2.8872887288728872,0.016879918892608387
2.8882888288828883,0.005344706144811409
2.8892889288928894,0.004852509808470938
2.8902890289028904,0.012367142038008115
2.8912891289128915,-0.037897685677634595
2.892289228922892,0.02328654114452239
2.893289328932893,-0.02039828407285049
2.894289428942894,0.008970530156228566
2.8952895289528953,-0.018362330470373184
2.8962896289628963,-0.018585602223749928
2.8972897289728974,-0.04323819660379416
2.8982898289828984,-0.027438114099526182
2.8992899289928995,0.041090987446476546
2.9002900290029,0.03618060144589113
2.901290129012901,0.03269800527816438
2.9022902290229022,0.00012159778533001609
2.9032903290329033,-0.032748005607970684
2.9042904290429044,0.006045684108355081
2.9052905290529054,0.0526107980126793
2.9062906290629065,0.0005565145363176096
2.907290729072907,-0.010589840492682212
2.908290829082908,-0.039353220529516564
2.909290929092909,-0.02997738484041637
2.9102910291029103,-0.0637414543390199
2.9112911291129113,-0.003899687248881303
2.9122912291229124,0.007742401843979271
2.9132913291329134,0.010935876959752872
2.9142914291429145,-0.006348110365311158
2.915291529152915,0.026449938719973642
2.916291629162916,0.1333485339571091
2.9172917291729172,0.5245286048193227
2.9182918291829183,0.9668994009085137
2.9192919291929194,0.27693879924233217
2.9202920292029204,0.05487678658259748
2.9212921292129215,0.02905709165085964
2.922292229222922,0.023876864020474113
2.923292329232923,-0.023385861747374115
2.924292429242924,-0.016744946978904267
2.9252925292529253,-0.023926102198444467
2.9262926292629263,-0.03145327100263469
2.9272927292729274,0.0504454630660566
2.9282928292829284,-0.00756605022080115
2.9292929292929295,-0.03019627901193464
2.93029302930293,-0.03988820198549049
2.931293129312931,0.011140747104433038
2.9322932293229322,0.04068752643076574
2.9332933293329333,0.036302316057375474
2.9342934293429344,0.011390076305933573
2.9352935293529354,0.050716540329745464
2.9362936293629365,-0.007421832995468097
2.937293729372937,0.015072836029200117
2.938293829382938,0.01729727729317242
2.939293929392939,-0.012922707420731788
2.9402940294029403,0.014355931972666214
2.9412941294129413,-0.006516600604514124
2.9422942294229424,-0.012360177229261679
2.9432943294329434,0.01340593481865353
2.9442944294429445,0.023496319486688975
2.945294529452945,0.018158665186080145
2.946294629462946,-0.000367136563023353
2.9472947294729472,0.011743210842293912
2.9482948294829483,-0.0467489675612241
2.9492949294929494,0.022328233798381256
2.9502950295029504,0.015291415154557219
2.9512951295129515,-0.009843149724136217
2.952295229522952,-0.022990702179582843
2.953295329532953,-0.019116030622867097
2.954295429542954,-0.03680668196250658
2.9552955295529553,0.013297013766214671
2.9562956295629563,0.004605311847959601
2.9572957295729574,0.018956229347596918
2.9582958295829584,-0.007359251736591576
2.9592959295929595,-0.0019545676073716
2.96029602960296,-0.030574619952995714
2.961296129612961,0.018835821463894103
2.9622962296229622,0.01924448530391709
2.9632963296329633,-0.0008890137563596778
2.9642964296429644,0.028558551375360224
2.9652965296529654,0.015217441652492903
2.9662966296629665,-0.028783765231224216
2.967296729672967,0.018016172430951917
2.968296829682968,0.040304366024372436
2.969296929692969,-0.028467823330746485
2.9702970297029703,0.06332247565469609
2.9712971297129713,-0.02066552829120049
2.9722972297229724,0.009800782637707027
2.9732973297329734,0.028505341389699672
2.9742974297429745,0.005846857608823718
2.975297529752975,-0.021942691536684187
2.976297629762976,-0.0113330242143838
2.9772977297729772,-0.02908984810519912
2.9782978297829783,0.0036014267751687725
2.9792979297929794,-0.051477549689501294
2.9802980298029804,0.039217265372150194
2.9812981298129815,-0.042597362056230534
2.982298229822982,0.054412480641290235
2.983298329832983,-0.027619553647058533
2.984298429842984,0.0058768197250387046
2.9852985298529853,-0.0041071338025916735
2.9862986298629863,0.005842590588639624
2.9872987298729874,-0.0014408833741048246
2.9882988298829884,0.03513069352113757
2.9892989298929895,-0.02483612961348468
2.99029902990299,-0.025713525553972598
2.991299129912991,-0.009255270216793326
2.9922992299229922,-0.011236624452213316
2.9932993299329933,0.013578230840837731
2.9942994299429944,0.03940449183867471
2.9952995299529954,0.008443053469620446
2.9962996299629965,-0.038757372791561544
2.997299729972997,0.014599989383556443
2.998299829982998,-0.046912969089531686
2.999299929992999,0.007537750949835543
3.0003000300030003,0.017338701868316445
3.0013001300130013,-0.02433067922880137
3.0023002300230024,0.06447292195523509
3.0033003300330035,-0.01750021246224612
3.0043004300430045,0.05154395891266058
3.005300530053005,0.01786910610978636
3.006300630063006,0.0014016441694709595
3.0073007300730072,0.005268758581982963
3.0083008300830083,0.04433730803133507
